host_time_epoch,host_time_iso_utc,host_monotonic,sample_index,shimmer_timestamp_raw,shimmer_timestamp_seconds,gsr_raw,gsr_adc,gsr_range,ppg_raw
1787750921.474853,2026-08-26T13:28:41.474853+00:00,442648.250000,1,3001889,91.610382080,699,699,0,1385
1787750921.475855,2026-08-26T13:28:41.475855+00:00,442648.250000,2,3002145,91.618194580,699,699,0,1438
1787750921.575953,2026-08-26T13:28:41.575953+00:00,442648.343000,3,3002401,91.626007080,699,699,0,1279
1787750921.575953,2026-08-26T13:28:41.575953+00:00,442648.343000,4,3002657,91.633819580,699,699,0,1195
1787750921.575953,2026-08-26T13:28:41.575953+00:00,442648.343000,5,3002913,91.641632080,699,699,0,1148
1787750921.575953,2026-08-26T13:28:41.575953+00:00,442648.343000,6,3003169,91.649444580,699,699,0,1127
1787750921.575953,2026-08-26T13:28:41.575953+00:00,442648.343000,7,3003425,91.657257080,699,699,0,1115
1787750921.575953,2026-08-26T13:28:41.575953+00:00,442648.343000,8,3003681,91.665069580,699,699,0,1108
1787750921.575953,2026-08-26T13:28:41.575953+00:00,442648.343000,9,3003937,91.672882080,17157,773,1,1105
1787750921.575953,2026-08-26T13:28:41.575953+00:00,442648.343000,10,3004193,91.680694580,17157,773,1,1103
1787750921.575953,2026-08-26T13:28:41.575953+00:00,442648.343000,11,3004449,91.688507080,17157,773,1,1303
1787750921.575953,2026-08-26T13:28:41.575953+00:00,442648.343000,12,3004705,91.696319580,17157,773,1,1318
1787750921.575953,2026-08-26T13:28:41.575953+00:00,442648.343000,13,3004961,91.704132080,17157,773,1,1380
1787750921.575953,2026-08-26T13:28:41.575953+00:00,442648.343000,14,3005217,91.711944580,17157,773,1,1438
1787750921.676053,2026-08-26T13:28:41.676053+00:00,442648.453000,15,3005473,91.719757080,17157,773,1,1479
1787750921.676053,2026-08-26T13:28:41.676053+00:00,442648.453000,16,3005729,91.727569580,17157,773,1,1508
1787750921.676053,2026-08-26T13:28:41.676053+00:00,442648.453000,17,3005985,91.735382080,17157,773,1,1525
1787750921.676053,2026-08-26T13:28:41.676053+00:00,442648.453000,18,3006241,91.743194580,17157,773,1,1539
1787750921.676053,2026-08-26T13:28:41.676053+00:00,442648.453000,19,3006497,91.751007080,17157,773,1,1547
1787750921.676053,2026-08-26T13:28:41.676053+00:00,442648.453000,20,3006753,91.758819580,33771,1003,2,1551
1787750921.676053,2026-08-26T13:28:41.676053+00:00,442648.453000,21,3007009,91.766632080,33771,1003,2,1554
1787750921.676053,2026-08-26T13:28:41.676053+00:00,442648.453000,22,3007265,91.774444580,33771,1003,2,1650
1787750921.676053,2026-08-26T13:28:41.676053+00:00,442648.453000,23,3007521,91.782257080,33771,1003,2,1733
1787750921.676053,2026-08-26T13:28:41.676053+00:00,442648.453000,24,3007777,91.790069580,33771,1003,2,1793
1787750921.676053,2026-08-26T13:28:41.676053+00:00,442648.453000,25,3008033,91.797882080,33771,1003,2,1728
1787750921.776207,2026-08-26T13:28:41.776207+00:00,442648.546000,26,3008289,91.805694580,33771,1003,2,1733
1787750921.776207,2026-08-26T13:28:41.776207+00:00,442648.546000,27,3008545,91.813507080,33771,1003,2,1755
1787750921.776207,2026-08-26T13:28:41.776207+00:00,442648.546000,28,3008801,91.821319580,33771,1003,2,1775
1787750921.776207,2026-08-26T13:28:41.776207+00:00,442648.546000,29,3009057,91.829132080,33771,1003,2,1792
1787750921.776207,2026-08-26T13:28:41.776207+00:00,442648.546000,30,3009313,91.836944580,33771,1003,2,1805
1787750921.776207,2026-08-26T13:28:41.776207+00:00,442648.546000,31,3009569,91.844757080,50896,1744,3,1812
1787750921.776207,2026-08-26T13:28:41.776207+00:00,442648.546000,32,3009825,91.852569580,50896,1744,3,1815
1787750921.776207,2026-08-26T13:28:41.776207+00:00,442648.546000,33,3010081,91.860382080,50897,1745,3,1817
1787750921.776207,2026-08-26T13:28:41.776207+00:00,442648.546000,34,3010337,91.868194580,50896,1744,3,1822
1787750921.776207,2026-08-26T13:28:41.776207+00:00,442648.546000,35,3010593,91.876007080,50897,1745,3,1821
1787750921.776207,2026-08-26T13:28:41.776207+00:00,442648.546000,36,3010849,91.883819580,50897,1745,3,1825
1787750921.776207,2026-08-26T13:28:41.776207+00:00,442648.546000,37,3011105,91.891632080,50897,1745,3,1827
1787750921.776207,2026-08-26T13:28:41.776207+00:00,442648.546000,38,3011361,91.899444580,50897,1745,3,1828
1787750921.776207,2026-08-26T13:28:41.776207+00:00,442648.546000,39,3011617,91.907257080,50897,1745,3,1828
1787750921.877117,2026-08-26T13:28:41.877117+00:00,442648.640000,40,3011873,91.915069580,50897,1745,3,1829
1787750921.877117,2026-08-26T13:28:41.877117+00:00,442648.640000,41,3012129,91.922882080,50897,1745,3,1829
1787750921.877117,2026-08-26T13:28:41.877117+00:00,442648.640000,42,3012385,91.930694580,50897,1745,3,1829
1787750921.877117,2026-08-26T13:28:41.877117+00:00,442648.640000,43,3012641,91.938507080,50898,1746,3,1830
1787750921.877117,2026-08-26T13:28:41.877117+00:00,442648.640000,44,3012897,91.946319580,50898,1746,3,1830
1787750921.877117,2026-08-26T13:28:41.877117+00:00,442648.640000,45,3013153,91.954132080,50898,1746,3,1831
1787750921.877117,2026-08-26T13:28:41.877117+00:00,442648.640000,46,3013409,91.961944580,50898,1746,3,1831
1787750921.877117,2026-08-26T13:28:41.877117+00:00,442648.640000,47,3013665,91.969757080,50898,1746,3,1831
1787750921.877117,2026-08-26T13:28:41.877117+00:00,442648.640000,48,3013921,91.977569580,50898,1746,3,1832
1787750921.877117,2026-08-26T13:28:41.877117+00:00,442648.640000,49,3014177,91.985382080,50898,1746,3,1832
1787750921.877117,2026-08-26T13:28:41.877117+00:00,442648.640000,50,3014433,91.993194580,50898,1746,3,1832
1787750921.877117,2026-08-26T13:28:41.877117+00:00,442648.640000,51,3014689,92.001007080,50898,1746,3,1832
1787750921.877117,2026-08-26T13:28:41.877117+00:00,442648.640000,52,3014945,92.008819580,50898,1746,3,1831
1787750921.877117,2026-08-26T13:28:41.877117+00:00,442648.640000,53,3015201,92.016632080,50899,1747,3,1832
1787750921.977603,2026-08-26T13:28:41.977603+00:00,442648.750000,54,3015457,92.024444580,50899,1747,3,1836
1787750921.977603,2026-08-26T13:28:41.977603+00:00,442648.750000,55,3015713,92.032257080,50899,1747,3,1838
1787750921.977603,2026-08-26T13:28:41.977603+00:00,442648.750000,56,3015969,92.040069580,50899,1747,3,1839
1787750921.977603,2026-08-26T13:28:41.977603+00:00,442648.750000,57,3016225,92.047882080,50899,1747,3,1840
1787750921.977603,2026-08-26T13:28:41.977603+00:00,442648.750000,58,3016481,92.055694580,50899,1747,3,1840
1787750921.977603,2026-08-26T13:28:41.977603+00:00,442648.750000,59,3016737,92.063507080,50900,1748,3,1841
1787750921.977603,2026-08-26T13:28:41.977603+00:00,442648.750000,60,3016993,92.071319580,50900,1748,3,1838
1787750921.977603,2026-08-26T13:28:41.977603+00:00,442648.750000,61,3017249,92.079132080,50900,1748,3,1838
1787750921.977603,2026-08-26T13:28:41.977603+00:00,442648.750000,62,3017505,92.086944580,50900,1748,3,1837
1787750921.977603,2026-08-26T13:28:41.977603+00:00,442648.750000,63,3017761,92.094757080,50901,1749,3,1836
1787750921.977603,2026-08-26T13:28:41.977603+00:00,442648.750000,64,3018017,92.102569580,50900,1748,3,1841
1787750921.977603,2026-08-26T13:28:41.977603+00:00,442648.750000,65,3018273,92.110382080,50900,1748,3,1839
1787750921.977603,2026-08-26T13:28:41.977603+00:00,442648.750000,66,3018529,92.118194580,50901,1749,3,1838
1787750922.078487,2026-08-26T13:28:42.078487+00:00,442648.843000,67,3018785,92.126007080,50901,1749,3,1841
1787750922.078487,2026-08-26T13:28:42.078487+00:00,442648.843000,68,3019041,92.133819580,50901,1749,3,1843
1787750922.078487,2026-08-26T13:28:42.078487+00:00,442648.843000,69,3019297,92.141632080,50901,1749,3,1844
1787750922.078487,2026-08-26T13:28:42.078487+00:00,442648.843000,70,3019553,92.149444580,50902,1750,3,1845
1787750922.078487,2026-08-26T13:28:42.078487+00:00,442648.843000,71,3019809,92.157257080,50902,1750,3,1847
1787750922.078487,2026-08-26T13:28:42.078487+00:00,442648.843000,72,3020065,92.165069580,50903,1751,3,1847
1787750922.078487,2026-08-26T13:28:42.078487+00:00,442648.843000,73,3020321,92.172882080,50903,1751,3,1852
1787750922.078487,2026-08-26T13:28:42.078487+00:00,442648.843000,74,3020577,92.180694580,50903,1751,3,1854
1787750922.078487,2026-08-26T13:28:42.078487+00:00,442648.843000,75,3020833,92.188507080,50904,1752,3,1855
1787750922.078487,2026-08-26T13:28:42.078487+00:00,442648.843000,76,3021089,92.196319580,50904,1752,3,1854
1787750922.078487,2026-08-26T13:28:42.078487+00:00,442648.843000,77,3021345,92.204132080,50904,1752,3,1854
1787750922.078487,2026-08-26T13:28:42.078487+00:00,442648.843000,78,3021601,92.211944580,50905,1753,3,1854
1787750922.078487,2026-08-26T13:28:42.078487+00:00,442648.843000,79,3021857,92.219757080,50905,1753,3,1857
1787750922.078487,2026-08-26T13:28:42.078487+00:00,442648.843000,80,3022113,92.227569580,50905,1753,3,1860
1787750922.178537,2026-08-26T13:28:42.178537+00:00,442648.953000,81,3022369,92.235382080,50905,1753,3,1861
1787750922.178537,2026-08-26T13:28:42.178537+00:00,442648.953000,82,3022625,92.243194580,50906,1754,3,1862
1787750922.178537,2026-08-26T13:28:42.178537+00:00,442648.953000,83,3022881,92.251007080,50907,1755,3,1863
1787750922.178537,2026-08-26T13:28:42.178537+00:00,442648.953000,84,3023137,92.258819580,50907,1755,3,1868
1787750922.178537,2026-08-26T13:28:42.178537+00:00,442648.953000,85,3023393,92.266632080,50907,1755,3,1871
1787750922.178537,2026-08-26T13:28:42.178537+00:00,442648.953000,86,3023649,92.274444580,50908,1756,3,1872
1787750922.178537,2026-08-26T13:28:42.178537+00:00,442648.953000,87,3023905,92.282257080,50908,1756,3,1871
1787750922.178537,2026-08-26T13:28:42.178537+00:00,442648.953000,88,3024161,92.290069580,50909,1757,3,1870
1787750922.178537,2026-08-26T13:28:42.178537+00:00,442648.953000,89,3024417,92.297882080,50909,1757,3,1874
1787750922.178537,2026-08-26T13:28:42.178537+00:00,442648.953000,90,3024673,92.305694580,50910,1758,3,1876
1787750922.278729,2026-08-26T13:28:42.278729+00:00,442649.046000,91,3024929,92.313507080,50911,1759,3,1879
1787750922.278729,2026-08-26T13:28:42.278729+00:00,442649.046000,92,3025185,92.321319580,50911,1759,3,1884
1787750922.278729,2026-08-26T13:28:42.278729+00:00,442649.046000,93,3025441,92.329132080,50911,1759,3,1887
1787750922.278729,2026-08-26T13:28:42.278729+00:00,442649.046000,94,3025697,92.336944580,50912,1760,3,1889
1787750922.278729,2026-08-26T13:28:42.278729+00:00,442649.046000,95,3025953,92.344757080,50912,1760,3,1885
1787750922.278729,2026-08-26T13:28:42.278729+00:00,442649.046000,96,3026209,92.352569580,50912,1760,3,1884
1787750922.278729,2026-08-26T13:28:42.278729+00:00,442649.046000,97,3026465,92.360382080,50913,1761,3,1883
1787750922.278729,2026-08-26T13:28:42.278729+00:00,442649.046000,98,3026721,92.368194580,50914,1762,3,1887
1787750922.278729,2026-08-26T13:28:42.278729+00:00,442649.046000,99,3026977,92.376007080,50914,1762,3,1890
1787750922.278729,2026-08-26T13:28:42.278729+00:00,442649.046000,100,3027233,92.383819580,50914,1762,3,1892
1787750922.278729,2026-08-26T13:28:42.278729+00:00,442649.046000,101,3027489,92.391632080,50915,1763,3,1892
1787750922.278729,2026-08-26T13:28:42.278729+00:00,442649.046000,102,3027745,92.399444580,50915,1763,3,1897
1787750922.278729,2026-08-26T13:28:42.278729+00:00,442649.046000,103,3028001,92.407257080,50915,1763,3,1900
1787750922.278729,2026-08-26T13:28:42.278729+00:00,442649.046000,104,3028257,92.415069580,50916,1764,3,1902
1787750922.278729,2026-08-26T13:28:42.278729+00:00,442649.046000,105,3028513,92.422882080,50917,1765,3,1901
1787750922.378826,2026-08-26T13:28:42.378826+00:00,442649.140000,106,3028769,92.430694580,50917,1765,3,1904
1787750922.378826,2026-08-26T13:28:42.378826+00:00,442649.140000,107,3029025,92.438507080,50917,1765,3,1907
1787750922.378826,2026-08-26T13:28:42.378826+00:00,442649.140000,108,3029281,92.446319580,50918,1766,3,1908
1787750922.378826,2026-08-26T13:28:42.378826+00:00,442649.140000,109,3029537,92.454132080,50919,1767,3,1909
1787750922.378826,2026-08-26T13:28:42.378826+00:00,442649.140000,110,3029793,92.461944580,50919,1767,3,1915
1787750922.378826,2026-08-26T13:28:42.378826+00:00,442649.140000,111,3030049,92.469757080,50919,1767,3,1917
1787750922.378826,2026-08-26T13:28:42.378826+00:00,442649.140000,112,3030305,92.477569580,50920,1768,3,1919
1787750922.378826,2026-08-26T13:28:42.378826+00:00,442649.140000,113,3030561,92.485382080,50921,1769,3,1918
1787750922.378826,2026-08-26T13:28:42.378826+00:00,442649.140000,114,3030817,92.493194580,50921,1769,3,1922
1787750922.378826,2026-08-26T13:28:42.378826+00:00,442649.140000,115,3031073,92.501007080,50922,1770,3,1924
1787750922.378826,2026-08-26T13:28:42.378826+00:00,442649.140000,116,3031329,92.508819580,50922,1770,3,1926
1787750922.378826,2026-08-26T13:28:42.378826+00:00,442649.140000,117,3031585,92.516632080,50923,1771,3,1928
1787750922.479175,2026-08-26T13:28:42.479175+00:00,442649.250000,118,3031841,92.524444580,50923,1771,3,1933
1787750922.479175,2026-08-26T13:28:42.479175+00:00,442649.250000,119,3032097,92.532257080,50923,1771,3,1935
1787750922.479175,2026-08-26T13:28:42.479175+00:00,442649.250000,120,3032353,92.540069580,50924,1772,3,1937
1787750922.479175,2026-08-26T13:28:42.479175+00:00,442649.250000,121,3032609,92.547882080,50924,1772,3,1936
1787750922.479175,2026-08-26T13:28:42.479175+00:00,442649.250000,122,3032865,92.555694580,50924,1772,3,1936
1787750922.479175,2026-08-26T13:28:42.479175+00:00,442649.250000,123,3033121,92.563507080,50925,1773,3,1936
1787750922.479175,2026-08-26T13:28:42.479175+00:00,442649.250000,124,3033377,92.571319580,50925,1773,3,1939
1787750922.479175,2026-08-26T13:28:42.479175+00:00,442649.250000,125,3033633,92.579132080,50926,1774,3,1942
1787750922.479175,2026-08-26T13:28:42.479175+00:00,442649.250000,126,3033889,92.586944580,50926,1774,3,1944
1787750922.479175,2026-08-26T13:28:42.479175+00:00,442649.250000,127,3034145,92.594757080,50927,1775,3,1945
1787750922.479175,2026-08-26T13:28:42.479175+00:00,442649.250000,128,3034401,92.602569580,50927,1775,3,1950
1787750922.479175,2026-08-26T13:28:42.479175+00:00,442649.250000,129,3034657,92.610382080,50928,1776,3,1953
1787750922.479175,2026-08-26T13:28:42.479175+00:00,442649.250000,130,3034913,92.618194580,50928,1776,3,1952
1787750922.479175,2026-08-26T13:28:42.479175+00:00,442649.250000,131,3035169,92.626007080,50928,1776,3,1952
1787750922.580076,2026-08-26T13:28:42.580076+00:00,442649.343000,132,3035425,92.633819580,50929,1777,3,1952
1787750922.580076,2026-08-26T13:28:42.580076+00:00,442649.343000,133,3035681,92.641632080,50929,1777,3,1956
1787750922.580076,2026-08-26T13:28:42.580076+00:00,442649.343000,134,3035937,92.649444580,50930,1778,3,1958
1787750922.580076,2026-08-26T13:28:42.580076+00:00,442649.343000,135,3036193,92.657257080,50930,1778,3,1961
1787750922.580076,2026-08-26T13:28:42.580076+00:00,442649.343000,136,3036449,92.665069580,50930,1778,3,1962
1787750922.580076,2026-08-26T13:28:42.580076+00:00,442649.343000,137,3036705,92.672882080,50931,1779,3,1963
1787750922.580076,2026-08-26T13:28:42.580076+00:00,442649.343000,138,3036961,92.680694580,50931,1779,3,1968
1787750922.680128,2026-08-26T13:28:42.680128+00:00,442649.453000,139,3037217,92.688507080,50931,1779,3,1970
1787750922.680128,2026-08-26T13:28:42.680128+00:00,442649.453000,140,3037473,92.696319580,50932,1780,3,1971
1787750922.680128,2026-08-26T13:28:42.680128+00:00,442649.453000,141,3037729,92.704132080,50932,1780,3,1970
1787750922.680128,2026-08-26T13:28:42.680128+00:00,442649.453000,142,3037985,92.711944580,50932,1780,3,1969
1787750922.680128,2026-08-26T13:28:42.680128+00:00,442649.453000,143,3038241,92.719757080,50933,1781,3,1969
1787750922.680128,2026-08-26T13:28:42.680128+00:00,442649.453000,144,3038497,92.727569580,50933,1781,3,1973
1787750922.680128,2026-08-26T13:28:42.680128+00:00,442649.453000,145,3038753,92.735382080,50934,1782,3,1975
1787750922.680128,2026-08-26T13:28:42.680128+00:00,442649.453000,146,3039009,92.743194580,50934,1782,3,1977
1787750922.680128,2026-08-26T13:28:42.680128+00:00,442649.453000,147,3039265,92.751007080,50935,1783,3,1979
1787750922.680128,2026-08-26T13:28:42.680128+00:00,442649.453000,148,3039521,92.758819580,50935,1783,3,1984
1787750922.680128,2026-08-26T13:28:42.680128+00:00,442649.453000,149,3039777,92.766632080,50935,1783,3,1986
1787750922.680128,2026-08-26T13:28:42.680128+00:00,442649.453000,150,3040033,92.774444580,50935,1783,3,1988
1787750922.680128,2026-08-26T13:28:42.680128+00:00,442649.453000,151,3040289,92.782257080,50936,1784,3,1988
1787750922.680128,2026-08-26T13:28:42.680128+00:00,442649.453000,152,3040545,92.790069580,50936,1784,3,1987
1787750922.680128,2026-08-26T13:28:42.680128+00:00,442649.453000,153,3040801,92.797882080,50936,1784,3,1985
1787750922.680128,2026-08-26T13:28:42.680128+00:00,442649.453000,154,3041057,92.805694580,50936,1784,3,1985
1787750922.680128,2026-08-26T13:28:42.680128+00:00,442649.453000,155,3041313,92.813507080,50937,1785,3,1985
1787750922.680128,2026-08-26T13:28:42.680128+00:00,442649.453000,156,3041569,92.821319580,50937,1785,3,1989
1787750922.781121,2026-08-26T13:28:42.781121+00:00,442649.546000,157,3041825,92.829132080,50937,1785,3,1991
1787750922.781121,2026-08-26T13:28:42.781121+00:00,442649.546000,158,3042081,92.836944580,50937,1785,3,1993
1787750922.781121,2026-08-26T13:28:42.781121+00:00,442649.546000,159,3042337,92.844757080,50938,1786,3,1993
1787750922.781121,2026-08-26T13:28:42.781121+00:00,442649.546000,160,3042593,92.852569580,50938,1786,3,1995
1787750922.781121,2026-08-26T13:28:42.781121+00:00,442649.546000,161,3042849,92.860382080,50938,1786,3,1996
1787750922.781121,2026-08-26T13:28:42.781121+00:00,442649.546000,162,3043105,92.868194580,50938,1786,3,1995
1787750922.781121,2026-08-26T13:28:42.781121+00:00,442649.546000,163,3043361,92.876007080,50938,1786,3,1996
1787750922.781121,2026-08-26T13:28:42.781121+00:00,442649.546000,164,3043617,92.883819580,50939,1787,3,1996
1787750922.781121,2026-08-26T13:28:42.781121+00:00,442649.546000,165,3043873,92.891632080,50939,1787,3,2000
1787750922.781121,2026-08-26T13:28:42.781121+00:00,442649.546000,166,3044129,92.899444580,50939,1787,3,2003
1787750922.781121,2026-08-26T13:28:42.781121+00:00,442649.546000,167,3044385,92.907257080,50939,1787,3,2004
1787750922.781121,2026-08-26T13:28:42.781121+00:00,442649.546000,168,3044641,92.915069580,50940,1788,3,2004
1787750922.781121,2026-08-26T13:28:42.781121+00:00,442649.546000,169,3044897,92.922882080,50940,1788,3,2002
1787750922.781121,2026-08-26T13:28:42.781121+00:00,442649.546000,170,3045153,92.930694580,50940,1788,3,2001
1787750922.881148,2026-08-26T13:28:42.881148+00:00,442649.656000,171,3045409,92.938507080,50940,1788,3,2001
1787750922.881148,2026-08-26T13:28:42.881148+00:00,442649.656000,172,3045665,92.946319580,50940,1788,3,2001
1787750922.881148,2026-08-26T13:28:42.881148+00:00,442649.656000,173,3045921,92.954132080,50941,1789,3,2001
1787750922.881148,2026-08-26T13:28:42.881148+00:00,442649.656000,174,3046177,92.961944580,50941,1789,3,2005
1787750922.881148,2026-08-26T13:28:42.881148+00:00,442649.656000,175,3046433,92.969757080,50941,1789,3,2007
1787750922.881148,2026-08-26T13:28:42.881148+00:00,442649.656000,176,3046689,92.977569580,50942,1790,3,2008
1787750922.881148,2026-08-26T13:28:42.881148+00:00,442649.656000,177,3046945,92.985382080,50942,1790,3,2010
1787750922.881148,2026-08-26T13:28:42.881148+00:00,442649.656000,178,3047201,92.993194580,50943,1791,3,2010
1787750922.881148,2026-08-26T13:28:42.881148+00:00,442649.656000,179,3047457,93.001007080,50943,1791,3,2015
1787750922.982121,2026-08-26T13:28:42.982121+00:00,442649.750000,180,3047713,93.008819580,50943,1791,3,2018
1787750922.982121,2026-08-26T13:28:42.982121+00:00,442649.750000,181,3047969,93.016632080,50943,1791,3,2019
1787750922.982121,2026-08-26T13:28:42.982121+00:00,442649.750000,182,3048225,93.024444580,50944,1792,3,2020
1787750922.982121,2026-08-26T13:28:42.982121+00:00,442649.750000,183,3048481,93.032257080,50944,1792,3,1834
1787750922.982121,2026-08-26T13:28:42.982121+00:00,442649.750000,184,3048737,93.040069580,50944,1792,3,1734
1787750922.982121,2026-08-26T13:28:42.982121+00:00,442649.750000,185,3048993,93.047882080,50944,1792,3,1679
1787750922.982121,2026-08-26T13:28:42.982121+00:00,442649.750000,186,3049249,93.055694580,50945,1793,3,1649
1787750922.982121,2026-08-26T13:28:42.982121+00:00,442649.750000,187,3049505,93.063507080,50945,1793,3,1635
1787750922.982121,2026-08-26T13:28:42.982121+00:00,442649.750000,188,3049761,93.071319580,50945,1793,3,1629
1787750922.982121,2026-08-26T13:28:42.982121+00:00,442649.750000,189,3050017,93.079132080,50945,1793,3,1625
1787750922.982121,2026-08-26T13:28:42.982121+00:00,442649.750000,190,3050273,93.086944580,50945,1793,3,1623
1787750922.982121,2026-08-26T13:28:42.982121+00:00,442649.750000,191,3050529,93.094757080,50946,1794,3,1621
1787750922.982121,2026-08-26T13:28:42.982121+00:00,442649.750000,192,3050785,93.102569580,50946,1794,3,1621
1787750922.982121,2026-08-26T13:28:42.982121+00:00,442649.750000,193,3051041,93.110382080,50946,1794,3,1621
1787750922.982121,2026-08-26T13:28:42.982121+00:00,442649.750000,194,3051297,93.118194580,50947,1795,3,1621
1787750922.982121,2026-08-26T13:28:42.982121+00:00,442649.750000,195,3051553,93.126007080,50947,1795,3,1624
1787750923.083004,2026-08-26T13:28:43.083004+00:00,442649.859000,196,3051809,93.133819580,50947,1795,3,1626
1787750923.083004,2026-08-26T13:28:43.083004+00:00,442649.859000,197,3052065,93.141632080,50948,1796,3,1628
1787750923.083004,2026-08-26T13:28:43.083004+00:00,442649.859000,198,3052321,93.149444580,50948,1796,3,1625
1787750923.083004,2026-08-26T13:28:43.083004+00:00,442649.859000,199,3052577,93.157257080,50948,1796,3,1623
1787750923.083004,2026-08-26T13:28:43.083004+00:00,442649.859000,200,3052833,93.165069580,50949,1797,3,1623
1787750923.083004,2026-08-26T13:28:43.083004+00:00,442649.859000,201,3053089,93.172882080,50949,1797,3,1627
1787750923.083004,2026-08-26T13:28:43.083004+00:00,442649.859000,202,3053345,93.180694580,50949,1797,3,1629
1787750923.083004,2026-08-26T13:28:43.083004+00:00,442649.859000,203,3053601,93.188507080,50950,1798,3,1630
1787750923.083004,2026-08-26T13:28:43.083004+00:00,442649.859000,204,3053857,93.196319580,50951,1799,3,1631
1787750923.083004,2026-08-26T13:28:43.083004+00:00,442649.859000,205,3054113,93.204132080,50952,1800,3,1635
1787750923.083004,2026-08-26T13:28:43.083004+00:00,442649.859000,206,3054369,93.211944580,50954,1802,3,1635
1787750923.083004,2026-08-26T13:28:43.083004+00:00,442649.859000,207,3054625,93.219757080,50955,1803,3,1639
1787750923.083004,2026-08-26T13:28:43.083004+00:00,442649.859000,208,3054881,93.227569580,50957,1805,3,1646
1787750923.183445,2026-08-26T13:28:43.183445+00:00,442649.953000,209,3055137,93.235382080,50959,1807,3,1650
1787750923.183445,2026-08-26T13:28:43.183445+00:00,442649.953000,210,3055393,93.243194580,50960,1808,3,1657
1787750923.183445,2026-08-26T13:28:43.183445+00:00,442649.953000,211,3055649,93.251007080,50960,1808,3,1658
1787750923.183445,2026-08-26T13:28:43.183445+00:00,442649.953000,212,3055905,93.258819580,50961,1809,3,1658
1787750923.183445,2026-08-26T13:28:43.183445+00:00,442649.953000,213,3056161,93.266632080,50962,1810,3,1662
1787750923.183445,2026-08-26T13:28:43.183445+00:00,442649.953000,214,3056417,93.274444580,50961,1809,3,1665
1787750923.183445,2026-08-26T13:28:43.183445+00:00,442649.953000,215,3056673,93.282257080,50962,1810,3,1665
1787750923.183445,2026-08-26T13:28:43.183445+00:00,442649.953000,216,3056929,93.290069580,50962,1810,3,1667
1787750923.183445,2026-08-26T13:28:43.183445+00:00,442649.953000,217,3057185,93.297882080,50962,1810,3,1668
1787750923.183445,2026-08-26T13:28:43.183445+00:00,442649.953000,218,3057441,93.305694580,50962,1810,3,1668
1787750923.183445,2026-08-26T13:28:43.183445+00:00,442649.953000,219,3057697,93.313507080,50963,1811,3,1669
1787750923.183445,2026-08-26T13:28:43.183445+00:00,442649.953000,220,3057953,93.321319580,50963,1811,3,1673
1787750923.283631,2026-08-26T13:28:43.283631+00:00,442650.046000,221,3058209,93.329132080,50963,1811,3,1675
1787750923.283631,2026-08-26T13:28:43.283631+00:00,442650.046000,222,3058465,93.336944580,50963,1811,3,1675
1787750923.283631,2026-08-26T13:28:43.283631+00:00,442650.046000,223,3058721,93.344757080,50963,1811,3,1676
1787750923.283631,2026-08-26T13:28:43.283631+00:00,442650.046000,224,3058977,93.352569580,50963,1811,3,1677
1787750923.283631,2026-08-26T13:28:43.283631+00:00,442650.046000,225,3059233,93.360382080,50963,1811,3,1677
1787750923.283631,2026-08-26T13:28:43.283631+00:00,442650.046000,226,3059489,93.368194580,50963,1811,3,1677
1787750923.283631,2026-08-26T13:28:43.283631+00:00,442650.046000,227,3059745,93.376007080,50964,1812,3,1677
1787750923.283631,2026-08-26T13:28:43.283631+00:00,442650.046000,228,3060001,93.383819580,50964,1812,3,1674
1787750923.283631,2026-08-26T13:28:43.283631+00:00,442650.046000,229,3060257,93.391632080,50963,1811,3,1672
1787750923.283631,2026-08-26T13:28:43.283631+00:00,442650.046000,230,3060513,93.399444580,50964,1812,3,1675
1787750923.283631,2026-08-26T13:28:43.283631+00:00,442650.046000,231,3060769,93.407257080,50964,1812,3,1673
1787750923.283631,2026-08-26T13:28:43.283631+00:00,442650.046000,232,3061025,93.415069580,50964,1812,3,1672
1787750923.283631,2026-08-26T13:28:43.283631+00:00,442650.046000,233,3061281,93.422882080,50964,1812,3,1671
1787750923.383856,2026-08-26T13:28:43.383856+00:00,442650.156000,234,3061537,93.430694580,50965,1813,3,1671
1787750923.383856,2026-08-26T13:28:43.383856+00:00,442650.156000,235,3061793,93.438507080,50964,1812,3,1674
1787750923.383856,2026-08-26T13:28:43.383856+00:00,442650.156000,236,3062049,93.446319580,50965,1813,3,1673
1787750923.383856,2026-08-26T13:28:43.383856+00:00,442650.156000,237,3062305,93.454132080,50965,1813,3,1676
1787750923.383856,2026-08-26T13:28:43.383856+00:00,442650.156000,238,3062561,93.461944580,50965,1813,3,1677
1787750923.383856,2026-08-26T13:28:43.383856+00:00,442650.156000,239,3062817,93.469757080,50965,1813,3,1678
1787750923.383856,2026-08-26T13:28:43.383856+00:00,442650.156000,240,3063073,93.477569580,50965,1813,3,1678
1787750923.383856,2026-08-26T13:28:43.383856+00:00,442650.156000,241,3063329,93.485382080,50965,1813,3,1679
1787750923.383856,2026-08-26T13:28:43.383856+00:00,442650.156000,242,3063585,93.493194580,50965,1813,3,1679
1787750923.383856,2026-08-26T13:28:43.383856+00:00,442650.156000,243,3063841,93.501007080,50965,1813,3,1679
1787750923.383856,2026-08-26T13:28:43.383856+00:00,442650.156000,244,3064097,93.508819580,50965,1813,3,1679
1787750923.383856,2026-08-26T13:28:43.383856+00:00,442650.156000,245,3064353,93.516632080,50964,1812,3,1679
1787750923.383856,2026-08-26T13:28:43.383856+00:00,442650.156000,246,3064609,93.524444580,50965,1813,3,1675
1787750923.383856,2026-08-26T13:28:43.383856+00:00,442650.156000,247,3064865,93.532257080,50965,1813,3,1677
1787750923.484174,2026-08-26T13:28:43.484174+00:00,442650.250000,248,3065121,93.540069580,50965,1813,3,1678
1787750923.484174,2026-08-26T13:28:43.484174+00:00,442650.250000,249,3065377,93.547882080,50965,1813,3,1678
1787750923.484174,2026-08-26T13:28:43.484174+00:00,442650.250000,250,3065633,93.555694580,50964,1812,3,1679
1787750923.484174,2026-08-26T13:28:43.484174+00:00,442650.250000,251,3065889,93.563507080,50965,1813,3,1675
1787750923.484174,2026-08-26T13:28:43.484174+00:00,442650.250000,252,3066145,93.571319580,50965,1813,3,1677
1787750923.484174,2026-08-26T13:28:43.484174+00:00,442650.250000,253,3066401,93.579132080,50965,1813,3,1678
1787750923.484174,2026-08-26T13:28:43.484174+00:00,442650.250000,254,3066657,93.586944580,50965,1813,3,1678
1787750923.484174,2026-08-26T13:28:43.484174+00:00,442650.250000,255,3066913,93.594757080,50966,1814,3,1679
1787750923.484174,2026-08-26T13:28:43.484174+00:00,442650.250000,256,3067169,93.602569580,50966,1814,3,1679
1787750923.584296,2026-08-26T13:28:43.584296+00:00,442650.359000,257,3067425,93.610382080,50966,1814,3,1680
1787750923.584296,2026-08-26T13:28:43.584296+00:00,442650.359000,258,3067681,93.618194580,50966,1814,3,1680
1787750923.584296,2026-08-26T13:28:43.584296+00:00,442650.359000,259,3067937,93.626007080,50966,1814,3,1681
1787750923.584296,2026-08-26T13:28:43.584296+00:00,442650.359000,260,3068193,93.633819580,50967,1815,3,1681
1787750923.584296,2026-08-26T13:28:43.584296+00:00,442650.359000,261,3068449,93.641632080,50966,1814,3,1685
1787750923.584296,2026-08-26T13:28:43.584296+00:00,442650.359000,262,3068705,93.649444580,50966,1814,3,1683
1787750923.584296,2026-08-26T13:28:43.584296+00:00,442650.359000,263,3068961,93.657257080,50966,1814,3,1682
1787750923.584296,2026-08-26T13:28:43.584296+00:00,442650.359000,264,3069217,93.665069580,50967,1815,3,1682
1787750923.584296,2026-08-26T13:28:43.584296+00:00,442650.359000,265,3069473,93.672882080,50966,1814,3,1685
1787750923.584296,2026-08-26T13:28:43.584296+00:00,442650.359000,266,3069729,93.680694580,50967,1815,3,1683
1787750923.584296,2026-08-26T13:28:43.584296+00:00,442650.359000,267,3069985,93.688507080,50966,1814,3,1686
1787750923.584296,2026-08-26T13:28:43.584296+00:00,442650.359000,268,3070241,93.696319580,50966,1814,3,1684
1787750923.584296,2026-08-26T13:28:43.584296+00:00,442650.359000,269,3070497,93.704132080,50967,1815,3,1682
1787750923.584296,2026-08-26T13:28:43.584296+00:00,442650.359000,270,3070753,93.711944580,50967,1815,3,1686
1787750923.584296,2026-08-26T13:28:43.584296+00:00,442650.359000,271,3071009,93.719757080,50966,1814,3,1687
1787750923.584296,2026-08-26T13:28:43.584296+00:00,442650.359000,272,3071265,93.727569580,50967,1815,3,1684
1787750923.685008,2026-08-26T13:28:43.685008+00:00,442650.453000,273,3071521,93.735382080,50967,1815,3,1687
1787750923.685008,2026-08-26T13:28:43.685008+00:00,442650.453000,274,3071777,93.743194580,50967,1815,3,1688
1787750923.685008,2026-08-26T13:28:43.685008+00:00,442650.453000,275,3072033,93.751007080,50967,1815,3,1689
1787750923.685008,2026-08-26T13:28:43.685008+00:00,442650.453000,276,3072289,93.758819580,50967,1815,3,1689
1787750923.685008,2026-08-26T13:28:43.685008+00:00,442650.453000,277,3072545,93.766632080,50967,1815,3,1689
1787750923.685008,2026-08-26T13:28:43.685008+00:00,442650.453000,278,3072801,93.774444580,50967,1815,3,1689
1787750923.685008,2026-08-26T13:28:43.685008+00:00,442650.453000,279,3073057,93.782257080,50967,1815,3,1689
1787750923.685008,2026-08-26T13:28:43.685008+00:00,442650.453000,280,3073313,93.790069580,50967,1815,3,1689
1787750923.685008,2026-08-26T13:28:43.685008+00:00,442650.453000,281,3073569,93.797882080,50967,1815,3,1690
1787750923.685008,2026-08-26T13:28:43.685008+00:00,442650.453000,282,3073825,93.805694580,50967,1815,3,1689
1787750923.685008,2026-08-26T13:28:43.685008+00:00,442650.453000,283,3074081,93.813507080,50967,1815,3,1689
1787750923.685008,2026-08-26T13:28:43.685008+00:00,442650.453000,284,3074337,93.821319580,50967,1815,3,1690
1787750923.785221,2026-08-26T13:28:43.785221+00:00,442650.546000,285,3074593,93.829132080,50967,1815,3,1690
1787750923.785221,2026-08-26T13:28:43.785221+00:00,442650.546000,286,3074849,93.836944580,50967,1815,3,1689
1787750923.785221,2026-08-26T13:28:43.785221+00:00,442650.546000,287,3075105,93.844757080,50967,1815,3,1690
1787750923.785221,2026-08-26T13:28:43.785221+00:00,442650.546000,288,3075361,93.852569580,50967,1815,3,1689
1787750923.785221,2026-08-26T13:28:43.785221+00:00,442650.546000,289,3075617,93.860382080,50967,1815,3,1690
1787750923.785221,2026-08-26T13:28:43.785221+00:00,442650.546000,290,3075873,93.868194580,50967,1815,3,1690
1787750923.785221,2026-08-26T13:28:43.785221+00:00,442650.546000,291,3076129,93.876007080,50967,1815,3,1689
1787750923.785221,2026-08-26T13:28:43.785221+00:00,442650.546000,292,3076385,93.883819580,50967,1815,3,1689
1787750923.785221,2026-08-26T13:28:43.785221+00:00,442650.546000,293,3076641,93.891632080,50967,1815,3,1690
1787750923.785221,2026-08-26T13:28:43.785221+00:00,442650.546000,294,3076897,93.899444580,50967,1815,3,1690
1787750923.785221,2026-08-26T13:28:43.785221+00:00,442650.546000,295,3077153,93.907257080,50967,1815,3,1690
1787750923.785221,2026-08-26T13:28:43.785221+00:00,442650.546000,296,3077409,93.915069580,50968,1816,3,1690
1787750923.785221,2026-08-26T13:28:43.785221+00:00,442650.546000,297,3077665,93.922882080,50968,1816,3,1687
1787750923.785221,2026-08-26T13:28:43.785221+00:00,442650.546000,298,3077921,93.930694580,50968,1816,3,1685
1787750923.885422,2026-08-26T13:28:43.885422+00:00,442650.656000,299,3078177,93.938507080,50967,1815,3,1684
1787750923.885422,2026-08-26T13:28:43.885422+00:00,442650.656000,300,3078433,93.946319580,50968,1816,3,1687
1787750923.885422,2026-08-26T13:28:43.885422+00:00,442650.656000,301,3078689,93.954132080,50968,1816,3,1685
1787750923.885422,2026-08-26T13:28:43.885422+00:00,442650.656000,302,3078945,93.961944580,50968,1816,3,1684
1787750923.885422,2026-08-26T13:28:43.885422+00:00,442650.656000,303,3079201,93.969757080,50969,1817,3,1684
1787750923.885422,2026-08-26T13:28:43.885422+00:00,442650.656000,304,3079457,93.977569580,50969,1817,3,1687
1787750923.885422,2026-08-26T13:28:43.885422+00:00,442650.656000,305,3079713,93.985382080,50969,1817,3,1689
1787750923.885422,2026-08-26T13:28:43.885422+00:00,442650.656000,306,3079969,93.993194580,50970,1818,3,1690
1787750923.885422,2026-08-26T13:28:43.885422+00:00,442650.656000,307,3080225,94.001007080,50969,1817,3,1692
1787750923.885422,2026-08-26T13:28:43.885422+00:00,442650.656000,308,3080481,94.008819580,50969,1817,3,1692
1787750923.885422,2026-08-26T13:28:43.885422+00:00,442650.656000,309,3080737,94.016632080,50970,1818,3,1692
1787750923.885422,2026-08-26T13:28:43.885422+00:00,442650.656000,310,3080993,94.024444580,50969,1817,3,1692
1787750923.885422,2026-08-26T13:28:43.885422+00:00,442650.656000,311,3081249,94.032257080,50969,1817,3,1692
1787750923.985547,2026-08-26T13:28:43.985547+00:00,442650.750000,312,3081505,94.040069580,50969,1817,3,1692
1787750923.985547,2026-08-26T13:28:43.985547+00:00,442650.750000,313,3081761,94.047882080,50970,1818,3,1692
1787750923.985547,2026-08-26T13:28:43.985547+00:00,442650.750000,314,3082017,94.055694580,50970,1818,3,1693
1787750923.985547,2026-08-26T13:28:43.985547+00:00,442650.750000,315,3082273,94.063507080,50970,1818,3,1693
1787750923.985547,2026-08-26T13:28:43.985547+00:00,442650.750000,316,3082529,94.071319580,50970,1818,3,1693
1787750923.985547,2026-08-26T13:28:43.985547+00:00,442650.750000,317,3082785,94.079132080,50970,1818,3,1693
1787750923.985547,2026-08-26T13:28:43.985547+00:00,442650.750000,318,3083041,94.086944580,50970,1818,3,1693
1787750923.985547,2026-08-26T13:28:43.985547+00:00,442650.750000,319,3083297,94.094757080,50971,1819,3,1693
1787750923.985547,2026-08-26T13:28:43.985547+00:00,442650.750000,320,3083553,94.102569580,50970,1818,3,1697
1787750923.985547,2026-08-26T13:28:43.985547+00:00,442650.750000,321,3083809,94.110382080,50970,1818,3,1695
1787750923.985547,2026-08-26T13:28:43.985547+00:00,442650.750000,322,3084065,94.118194580,50970,1818,3,1694
1787750924.085894,2026-08-26T13:28:44.085894+00:00,442650.859000,323,3084321,94.126007080,50971,1819,3,1694
1787750924.085894,2026-08-26T13:28:44.085894+00:00,442650.859000,324,3084577,94.133819580,50971,1819,3,1698
1787750924.085894,2026-08-26T13:28:44.085894+00:00,442650.859000,325,3084833,94.141632080,50970,1818,3,1700
1787750924.085894,2026-08-26T13:28:44.085894+00:00,442650.859000,326,3085089,94.149444580,50970,1818,3,1697
1787750924.085894,2026-08-26T13:28:44.085894+00:00,442650.859000,327,3085345,94.157257080,50971,1819,3,1695
1787750924.085894,2026-08-26T13:28:44.085894+00:00,442650.859000,328,3085601,94.165069580,50971,1819,3,1698
1787750924.085894,2026-08-26T13:28:44.085894+00:00,442650.859000,329,3085857,94.172882080,50970,1818,3,1700
1787750924.085894,2026-08-26T13:28:44.085894+00:00,442650.859000,330,3086113,94.180694580,50971,1819,3,1697
1787750924.085894,2026-08-26T13:28:44.085894+00:00,442650.859000,331,3086369,94.188507080,50970,1818,3,1699
1787750924.085894,2026-08-26T13:28:44.085894+00:00,442650.859000,332,3086625,94.196319580,50970,1818,3,1696
1787750924.085894,2026-08-26T13:28:44.085894+00:00,442650.859000,333,3086881,94.204132080,50970,1818,3,1695
1787750924.085894,2026-08-26T13:28:44.085894+00:00,442650.859000,334,3087137,94.211944580,50971,1819,3,1694
1787750924.085894,2026-08-26T13:28:44.085894+00:00,442650.859000,335,3087393,94.219757080,50970,1818,3,1698
1787750924.085894,2026-08-26T13:28:44.085894+00:00,442650.859000,336,3087649,94.227569580,50970,1818,3,1696
1787750924.185898,2026-08-26T13:28:44.185898+00:00,442650.953000,337,3087905,94.235382080,50970,1818,3,1695
1787750924.185898,2026-08-26T13:28:44.185898+00:00,442650.953000,338,3088161,94.243194580,50970,1818,3,1694
1787750924.185898,2026-08-26T13:28:44.185898+00:00,442650.953000,339,3088417,94.251007080,50970,1818,3,1694
1787750924.185898,2026-08-26T13:28:44.185898+00:00,442650.953000,340,3088673,94.258819580,50970,1818,3,1694
1787750924.185898,2026-08-26T13:28:44.185898+00:00,442650.953000,341,3088929,94.266632080,50970,1818,3,1694
1787750924.185898,2026-08-26T13:28:44.185898+00:00,442650.953000,342,3089185,94.274444580,50971,1819,3,1694
1787750924.185898,2026-08-26T13:28:44.185898+00:00,442650.953000,343,3089441,94.282257080,50971,1819,3,1698
1787750924.185898,2026-08-26T13:28:44.185898+00:00,442650.953000,344,3089697,94.290069580,50970,1818,3,1700
1787750924.185898,2026-08-26T13:28:44.185898+00:00,442650.953000,345,3089953,94.297882080,50970,1818,3,1696
1787750924.185898,2026-08-26T13:28:44.185898+00:00,442650.953000,346,3090209,94.305694580,50970,1818,3,1695
1787750924.185898,2026-08-26T13:28:44.185898+00:00,442650.953000,347,3090465,94.313507080,50970,1818,3,1694
1787750924.185898,2026-08-26T13:28:44.185898+00:00,442650.953000,348,3090721,94.321319580,50970,1818,3,1694
1787750924.286598,2026-08-26T13:28:44.286598+00:00,442651.062000,349,3090977,94.329132080,50970,1818,3,1694
1787750924.286598,2026-08-26T13:28:44.286598+00:00,442651.062000,350,3091233,94.336944580,50970,1818,3,1693
1787750924.286598,2026-08-26T13:28:44.286598+00:00,442651.062000,351,3091489,94.344757080,50970,1818,3,1693
1787750924.286598,2026-08-26T13:28:44.286598+00:00,442651.062000,352,3091745,94.352569580,50970,1818,3,1693
1787750924.286598,2026-08-26T13:28:44.286598+00:00,442651.062000,353,3092001,94.360382080,50970,1818,3,1693
1787750924.286598,2026-08-26T13:28:44.286598+00:00,442651.062000,354,3092257,94.368194580,50970,1818,3,1693
1787750924.286598,2026-08-26T13:28:44.286598+00:00,442651.062000,355,3092513,94.376007080,50970,1818,3,1693
1787750924.286598,2026-08-26T13:28:44.286598+00:00,442651.062000,356,3092769,94.383819580,50970,1818,3,1693
1787750924.286598,2026-08-26T13:28:44.286598+00:00,442651.062000,357,3093025,94.391632080,50970,1818,3,1693
1787750924.286598,2026-08-26T13:28:44.286598+00:00,442651.062000,358,3093281,94.399444580,50971,1819,3,1693
1787750924.286598,2026-08-26T13:28:44.286598+00:00,442651.062000,359,3093537,94.407257080,50970,1818,3,1697
1787750924.286598,2026-08-26T13:28:44.286598+00:00,442651.062000,360,3093793,94.415069580,50970,1818,3,1695
1787750924.286598,2026-08-26T13:28:44.286598+00:00,442651.062000,361,3094049,94.422882080,50970,1818,3,1695
1787750924.286598,2026-08-26T13:28:44.286598+00:00,442651.062000,362,3094305,94.430694580,50970,1818,3,1694
1787750924.386819,2026-08-26T13:28:44.386819+00:00,442651.156000,363,3094561,94.438507080,50970,1818,3,1694
1787750924.386819,2026-08-26T13:28:44.386819+00:00,442651.156000,364,3094817,94.446319580,50970,1818,3,1693
1787750924.386819,2026-08-26T13:28:44.386819+00:00,442651.156000,365,3095073,94.454132080,50970,1818,3,1694
1787750924.386819,2026-08-26T13:28:44.386819+00:00,442651.156000,366,3095329,94.461944580,50970,1818,3,1693
1787750924.386819,2026-08-26T13:28:44.386819+00:00,442651.156000,367,3095585,94.469757080,50971,1819,3,1694
1787750924.386819,2026-08-26T13:28:44.386819+00:00,442651.156000,368,3095841,94.477569580,50971,1819,3,1697
1787750924.386819,2026-08-26T13:28:44.386819+00:00,442651.156000,369,3096097,94.485382080,50971,1819,3,1699
1787750924.386819,2026-08-26T13:28:44.386819+00:00,442651.156000,370,3096353,94.493194580,50971,1819,3,1701
1787750924.386819,2026-08-26T13:28:44.386819+00:00,442651.156000,371,3096609,94.501007080,50971,1819,3,1701
1787750924.487220,2026-08-26T13:28:44.487220+00:00,442651.250000,372,3096865,94.508819580,50971,1819,3,1701
1787750924.487220,2026-08-26T13:28:44.487220+00:00,442651.250000,373,3097121,94.516632080,50970,1818,3,1702
1787750924.487220,2026-08-26T13:28:44.487220+00:00,442651.250000,374,3097377,94.524444580,50971,1819,3,1698
1787750924.487220,2026-08-26T13:28:44.487220+00:00,442651.250000,375,3097633,94.532257080,50970,1818,3,1700
1787750924.487220,2026-08-26T13:28:44.487220+00:00,442651.250000,376,3097889,94.540069580,50971,1819,3,1697
1787750924.487220,2026-08-26T13:28:44.487220+00:00,442651.250000,377,3098145,94.547882080,50971,1819,3,1699
1787750924.487220,2026-08-26T13:28:44.487220+00:00,442651.250000,378,3098401,94.555694580,50971,1819,3,1700
1787750924.487220,2026-08-26T13:28:44.487220+00:00,442651.250000,379,3098657,94.563507080,50971,1819,3,1702
1787750924.487220,2026-08-26T13:28:44.487220+00:00,442651.250000,380,3098913,94.571319580,50971,1819,3,1701
1787750924.487220,2026-08-26T13:28:44.487220+00:00,442651.250000,381,3099169,94.579132080,50972,1820,3,1702
1787750924.487220,2026-08-26T13:28:44.487220+00:00,442651.250000,382,3099425,94.586944580,50972,1820,3,1699
1787750924.487220,2026-08-26T13:28:44.487220+00:00,442651.250000,383,3099681,94.594757080,50972,1820,3,1697
1787750924.487220,2026-08-26T13:28:44.487220+00:00,442651.250000,384,3099937,94.602569580,50972,1820,3,1697
1787750924.487220,2026-08-26T13:28:44.487220+00:00,442651.250000,385,3100193,94.610382080,50972,1820,3,1696
1787750924.487220,2026-08-26T13:28:44.487220+00:00,442651.250000,386,3100449,94.618194580,50972,1820,3,1696
1787750924.487220,2026-08-26T13:28:44.487220+00:00,442651.250000,387,3100705,94.626007080,50972,1820,3,1696
1787750924.587304,2026-08-26T13:28:44.587304+00:00,442651.359000,388,3100961,94.633819580,50972,1820,3,1696
1787750924.587304,2026-08-26T13:28:44.587304+00:00,442651.359000,389,3101217,94.641632080,50972,1820,3,1695
1787750924.587304,2026-08-26T13:28:44.587304+00:00,442651.359000,390,3101473,94.649444580,50972,1820,3,1696
1787750924.587304,2026-08-26T13:28:44.587304+00:00,442651.359000,391,3101729,94.657257080,50973,1821,3,1696
1787750924.587304,2026-08-26T13:28:44.587304+00:00,442651.359000,392,3101985,94.665069580,50972,1820,3,1699
1787750924.587304,2026-08-26T13:28:44.587304+00:00,442651.359000,393,3102241,94.672882080,50972,1820,3,1698
1787750924.587304,2026-08-26T13:28:44.587304+00:00,442651.359000,394,3102497,94.680694580,50972,1820,3,1697
1787750924.587304,2026-08-26T13:28:44.587304+00:00,442651.359000,395,3102753,94.688507080,50972,1820,3,1696
1787750924.587304,2026-08-26T13:28:44.587304+00:00,442651.359000,396,3103009,94.696319580,50973,1821,3,1696
1787750924.587304,2026-08-26T13:28:44.587304+00:00,442651.359000,397,3103265,94.704132080,50972,1820,3,1700
1787750924.587304,2026-08-26T13:28:44.587304+00:00,442651.359000,398,3103521,94.711944580,50973,1821,3,1698
1787750924.587304,2026-08-26T13:28:44.587304+00:00,442651.359000,399,3103777,94.719757080,50972,1820,3,1701
1787750924.587304,2026-08-26T13:28:44.587304+00:00,442651.359000,400,3104033,94.727569580,50973,1821,3,1699
1787750924.687610,2026-08-26T13:28:44.687610+00:00,442651.453000,401,3104289,94.735382080,50973,1821,3,1701
1787750924.687610,2026-08-26T13:28:44.687610+00:00,442651.453000,402,3104545,94.743194580,50973,1821,3,1703
1787750924.687610,2026-08-26T13:28:44.687610+00:00,442651.453000,403,3104801,94.751007080,50973,1821,3,1704
1787750924.687610,2026-08-26T13:28:44.687610+00:00,442651.453000,404,3105057,94.758819580,50973,1821,3,1704
1787750924.687610,2026-08-26T13:28:44.687610+00:00,442651.453000,405,3105313,94.766632080,50973,1821,3,1704
1787750924.687610,2026-08-26T13:28:44.687610+00:00,442651.453000,406,3105569,94.774444580,50973,1821,3,1704
1787750924.687610,2026-08-26T13:28:44.687610+00:00,442651.453000,407,3105825,94.782257080,50973,1821,3,1705
1787750924.687610,2026-08-26T13:28:44.687610+00:00,442651.453000,408,3106081,94.790069580,50973,1821,3,1705
1787750924.687610,2026-08-26T13:28:44.687610+00:00,442651.453000,409,3106337,94.797882080,50973,1821,3,1704
1787750924.687610,2026-08-26T13:28:44.687610+00:00,442651.453000,410,3106593,94.805694580,50974,1822,3,1705
1787750924.687610,2026-08-26T13:28:44.687610+00:00,442651.453000,411,3106849,94.813507080,50974,1822,3,1705
1787750924.687610,2026-08-26T13:28:44.687610+00:00,442651.453000,412,3107105,94.821319580,50974,1822,3,1706
1787750924.788049,2026-08-26T13:28:44.788049+00:00,442651.562000,413,3107361,94.829132080,50975,1823,3,1706
1787750924.788049,2026-08-26T13:28:44.788049+00:00,442651.562000,414,3107617,94.836944580,50975,1823,3,1710
1787750924.788049,2026-08-26T13:28:44.788049+00:00,442651.562000,415,3107873,94.844757080,50975,1823,3,1712
1787750924.788049,2026-08-26T13:28:44.788049+00:00,442651.562000,416,3108129,94.852569580,50975,1823,3,1714
1787750924.788049,2026-08-26T13:28:44.788049+00:00,442651.562000,417,3108385,94.860382080,50975,1823,3,1714
1787750924.788049,2026-08-26T13:28:44.788049+00:00,442651.562000,418,3108641,94.868194580,50975,1823,3,1715
1787750924.788049,2026-08-26T13:28:44.788049+00:00,442651.562000,419,3108897,94.876007080,50975,1823,3,1715
1787750924.788049,2026-08-26T13:28:44.788049+00:00,442651.562000,420,3109153,94.883819580,50975,1823,3,1715
1787750924.788049,2026-08-26T13:28:44.788049+00:00,442651.562000,421,3109409,94.891632080,50976,1824,3,1715
1787750924.788049,2026-08-26T13:28:44.788049+00:00,442651.562000,422,3109665,94.899444580,50976,1824,3,1712
1787750924.788049,2026-08-26T13:28:44.788049+00:00,442651.562000,423,3109921,94.907257080,50976,1824,3,1711
1787750924.788049,2026-08-26T13:28:44.788049+00:00,442651.562000,424,3110177,94.915069580,50977,1825,3,1710
1787750924.788049,2026-08-26T13:28:44.788049+00:00,442651.562000,425,3110433,94.922882080,50976,1824,3,1714
1787750924.788049,2026-08-26T13:28:44.788049+00:00,442651.562000,426,3110689,94.930694580,50977,1825,3,1712
1787750924.888189,2026-08-26T13:28:44.888189+00:00,442651.656000,427,3110945,94.938507080,50976,1824,3,1714
1787750924.888189,2026-08-26T13:28:44.888189+00:00,442651.656000,428,3111201,94.946319580,50976,1824,3,1712
1787750924.888189,2026-08-26T13:28:44.888189+00:00,442651.656000,429,3111457,94.954132080,50977,1825,3,1711
1787750924.888189,2026-08-26T13:28:44.888189+00:00,442651.656000,430,3111713,94.961944580,50976,1824,3,1714
1787750924.888189,2026-08-26T13:28:44.888189+00:00,442651.656000,431,3111969,94.969757080,50977,1825,3,1712
1787750924.888189,2026-08-26T13:28:44.888189+00:00,442651.656000,432,3112225,94.977569580,50976,1824,3,1714
1787750924.888189,2026-08-26T13:28:44.888189+00:00,442651.656000,433,3112481,94.985382080,50976,1824,3,1712
1787750924.888189,2026-08-26T13:28:44.888189+00:00,442651.656000,434,3112737,94.993194580,50977,1825,3,1711
1787750924.888189,2026-08-26T13:28:44.888189+00:00,442651.656000,435,3112993,95.001007080,50977,1825,3,1714
1787750924.888189,2026-08-26T13:28:44.888189+00:00,442651.656000,436,3113249,95.008819580,50977,1825,3,1716
1787750924.888189,2026-08-26T13:28:44.888189+00:00,442651.656000,437,3113505,95.016632080,50977,1825,3,1717
1787750924.888189,2026-08-26T13:28:44.888189+00:00,442651.656000,438,3113761,95.024444580,50977,1825,3,1717
1787750924.888189,2026-08-26T13:28:44.888189+00:00,442651.656000,439,3114017,95.032257080,50977,1825,3,1718
1787750924.988324,2026-08-26T13:28:44.988324+00:00,442651.750000,440,3114273,95.040069580,50977,1825,3,1717
1787750924.988324,2026-08-26T13:28:44.988324+00:00,442651.750000,441,3114529,95.047882080,50977,1825,3,1718
1787750924.988324,2026-08-26T13:28:44.988324+00:00,442651.750000,442,3114785,95.055694580,50977,1825,3,1718
1787750924.988324,2026-08-26T13:28:44.988324+00:00,442651.750000,443,3115041,95.063507080,50977,1825,3,1718
1787750924.988324,2026-08-26T13:28:44.988324+00:00,442651.750000,444,3115297,95.071319580,50977,1825,3,1718
1787750924.988324,2026-08-26T13:28:44.988324+00:00,442651.750000,445,3115553,95.079132080,50978,1826,3,1718
1787750924.988324,2026-08-26T13:28:44.988324+00:00,442651.750000,446,3115809,95.086944580,50977,1825,3,1719
1787750924.988324,2026-08-26T13:28:44.988324+00:00,442651.750000,447,3116065,95.094757080,50977,1825,3,1718
1787750924.988324,2026-08-26T13:28:44.988324+00:00,442651.750000,448,3116321,95.102569580,50977,1825,3,1718
1787750924.988324,2026-08-26T13:28:44.988324+00:00,442651.750000,449,3116577,95.110382080,50977,1825,3,1718
1787750924.988324,2026-08-26T13:28:44.988324+00:00,442651.750000,450,3116833,95.118194580,50977,1825,3,1718
1787750924.988324,2026-08-26T13:28:44.988324+00:00,442651.750000,451,3117089,95.126007080,50977,1825,3,1718
1787750925.088500,2026-08-26T13:28:45.088500+00:00,442651.859000,452,3117345,95.133819580,50977,1825,3,1718
1787750925.088500,2026-08-26T13:28:45.088500+00:00,442651.859000,453,3117601,95.141632080,50977,1825,3,1718
1787750925.088500,2026-08-26T13:28:45.088500+00:00,442651.859000,454,3117857,95.149444580,50977,1825,3,1718
1787750925.088500,2026-08-26T13:28:45.088500+00:00,442651.859000,455,3118113,95.157257080,50977,1825,3,1718
1787750925.088500,2026-08-26T13:28:45.088500+00:00,442651.859000,456,3118369,95.165069580,50977,1825,3,1718
1787750925.088500,2026-08-26T13:28:45.088500+00:00,442651.859000,457,3118625,95.172882080,50977,1825,3,1718
1787750925.088500,2026-08-26T13:28:45.088500+00:00,442651.859000,458,3118881,95.180694580,50976,1824,3,1718
1787750925.088500,2026-08-26T13:28:45.088500+00:00,442651.859000,459,3119137,95.188507080,50976,1824,3,1714
1787750925.088500,2026-08-26T13:28:45.088500+00:00,442651.859000,460,3119393,95.196319580,50977,1825,3,1712
1787750925.088500,2026-08-26T13:28:45.088500+00:00,442651.859000,461,3119649,95.204132080,50976,1824,3,1715
1787750925.088500,2026-08-26T13:28:45.088500+00:00,442651.859000,462,3119905,95.211944580,50976,1824,3,1712
1787750925.088500,2026-08-26T13:28:45.088500+00:00,442651.859000,463,3120161,95.219757080,50976,1824,3,1711
1787750925.088500,2026-08-26T13:28:45.088500+00:00,442651.859000,464,3120417,95.227569580,50977,1825,3,1710
1787750925.188567,2026-08-26T13:28:45.188567+00:00,442651.953000,465,3120673,95.235382080,50976,1824,3,1714
1787750925.188567,2026-08-26T13:28:45.188567+00:00,442651.953000,466,3120929,95.243194580,50976,1824,3,1712
1787750925.188567,2026-08-26T13:28:45.188567+00:00,442651.953000,467,3121185,95.251007080,50976,1824,3,1711
1787750925.188567,2026-08-26T13:28:45.188567+00:00,442651.953000,468,3121441,95.258819580,50976,1824,3,1710
1787750925.188567,2026-08-26T13:28:45.188567+00:00,442651.953000,469,3121697,95.266632080,50976,1824,3,1710
1787750925.188567,2026-08-26T13:28:45.188567+00:00,442651.953000,470,3121953,95.274444580,50976,1824,3,1709
1787750925.188567,2026-08-26T13:28:45.188567+00:00,442651.953000,471,3122209,95.282257080,50976,1824,3,1710
1787750925.188567,2026-08-26T13:28:45.188567+00:00,442651.953000,472,3122465,95.290069580,50976,1824,3,1709
1787750925.188567,2026-08-26T13:28:45.188567+00:00,442651.953000,473,3122721,95.297882080,50975,1823,3,1709
1787750925.188567,2026-08-26T13:28:45.188567+00:00,442651.953000,474,3122977,95.305694580,50976,1824,3,1712
1787750925.188567,2026-08-26T13:28:45.188567+00:00,442651.953000,475,3123233,95.313507080,50976,1824,3,1711
1787750925.188567,2026-08-26T13:28:45.188567+00:00,442651.953000,476,3123489,95.321319580,50976,1824,3,1710
1787750925.288571,2026-08-26T13:28:45.288571+00:00,442652.062000,477,3123745,95.329132080,50976,1824,3,1710
1787750925.288571,2026-08-26T13:28:45.288571+00:00,442652.062000,478,3124001,95.336944580,50975,1823,3,1709
1787750925.288571,2026-08-26T13:28:45.288571+00:00,442652.062000,479,3124257,95.344757080,50976,1824,3,1712
1787750925.288571,2026-08-26T13:28:45.288571+00:00,442652.062000,480,3124513,95.352569580,50976,1824,3,1711
1787750925.288571,2026-08-26T13:28:45.288571+00:00,442652.062000,481,3124769,95.360382080,50976,1824,3,1710
1787750925.288571,2026-08-26T13:28:45.288571+00:00,442652.062000,482,3125025,95.368194580,50975,1823,3,1710
1787750925.288571,2026-08-26T13:28:45.288571+00:00,442652.062000,483,3125281,95.376007080,50976,1824,3,1712
1787750925.288571,2026-08-26T13:28:45.288571+00:00,442652.062000,484,3125537,95.383819580,50976,1824,3,1711
1787750925.288571,2026-08-26T13:28:45.288571+00:00,442652.062000,485,3125793,95.391632080,50976,1824,3,1710
1787750925.288571,2026-08-26T13:28:45.288571+00:00,442652.062000,486,3126049,95.399444580,50975,1823,3,1710
1787750925.288571,2026-08-26T13:28:45.288571+00:00,442652.062000,487,3126305,95.407257080,50975,1823,3,1712
1787750925.288571,2026-08-26T13:28:45.288571+00:00,442652.062000,488,3126561,95.415069580,50976,1824,3,1714
1787750925.288571,2026-08-26T13:28:45.288571+00:00,442652.062000,489,3126817,95.422882080,50975,1823,3,1712
1787750925.288571,2026-08-26T13:28:45.288571+00:00,442652.062000,490,3127073,95.430694580,50976,1824,3,1713
1787750925.389415,2026-08-26T13:28:45.389415+00:00,442652.156000,491,3127329,95.438507080,50975,1823,3,1711
1787750925.389415,2026-08-26T13:28:45.389415+00:00,442652.156000,492,3127585,95.446319580,50975,1823,3,1713
1787750925.389415,2026-08-26T13:28:45.389415+00:00,442652.156000,493,3127841,95.454132080,50975,1823,3,1714
1787750925.389415,2026-08-26T13:28:45.389415+00:00,442652.156000,494,3128097,95.461944580,50975,1823,3,1714
1787750925.389415,2026-08-26T13:28:45.389415+00:00,442652.156000,495,3128353,95.469757080,50975,1823,3,1715
1787750925.389415,2026-08-26T13:28:45.389415+00:00,442652.156000,496,3128609,95.477569580,50976,1824,3,1715
1787750925.389415,2026-08-26T13:28:45.389415+00:00,442652.156000,497,3128865,95.485382080,50975,1823,3,1712
1787750925.389415,2026-08-26T13:28:45.389415+00:00,442652.156000,498,3129121,95.493194580,50975,1823,3,1713
1787750925.389415,2026-08-26T13:28:45.389415+00:00,442652.156000,499,3129377,95.501007080,50976,1824,3,1714
1787750925.389415,2026-08-26T13:28:45.389415+00:00,442652.156000,500,3129633,95.508819580,50976,1824,3,1712
1787750925.389415,2026-08-26T13:28:45.389415+00:00,442652.156000,501,3129889,95.516632080,50976,1824,3,1711
1787750925.389415,2026-08-26T13:28:45.389415+00:00,442652.156000,502,3130145,95.524444580,50976,1824,3,1710
1787750925.389415,2026-08-26T13:28:45.389415+00:00,442652.156000,503,3130401,95.532257080,50976,1824,3,1710
1787750925.490280,2026-08-26T13:28:45.490280+00:00,442652.265000,504,3130657,95.540069580,50976,1824,3,1709
1787750925.490280,2026-08-26T13:28:45.490280+00:00,442652.265000,505,3130913,95.547882080,50976,1824,3,1709
1787750925.490280,2026-08-26T13:28:45.490280+00:00,442652.265000,506,3131169,95.555694580,50977,1825,3,1709
1787750925.490280,2026-08-26T13:28:45.490280+00:00,442652.265000,507,3131425,95.563507080,50976,1824,3,1713
1787750925.490280,2026-08-26T13:28:45.490280+00:00,442652.265000,508,3131681,95.571319580,50976,1824,3,1711
1787750925.490280,2026-08-26T13:28:45.490280+00:00,442652.265000,509,3131937,95.579132080,50976,1824,3,1710
1787750925.490280,2026-08-26T13:28:45.490280+00:00,442652.265000,510,3132193,95.586944580,50976,1824,3,1710
1787750925.590309,2026-08-26T13:28:45.590309+00:00,442652.359000,511,3132449,95.594757080,50977,1825,3,1710
1787750925.590309,2026-08-26T13:28:45.590309+00:00,442652.359000,512,3132705,95.602569580,50977,1825,3,1713
1787750925.590309,2026-08-26T13:28:45.590309+00:00,442652.359000,513,3132961,95.610382080,50977,1825,3,1716
1787750925.590309,2026-08-26T13:28:45.590309+00:00,442652.359000,514,3133217,95.618194580,50978,1826,3,1716
1787750925.590309,2026-08-26T13:28:45.590309+00:00,442652.359000,515,3133473,95.626007080,50978,1826,3,1718
1787750925.590309,2026-08-26T13:28:45.590309+00:00,442652.359000,516,3133729,95.633819580,50978,1826,3,1719
1787750925.590309,2026-08-26T13:28:45.590309+00:00,442652.359000,517,3133985,95.641632080,50978,1826,3,1719
1787750925.590309,2026-08-26T13:28:45.590309+00:00,442652.359000,518,3134241,95.649444580,50978,1826,3,1719
1787750925.590309,2026-08-26T13:28:45.590309+00:00,442652.359000,519,3134497,95.657257080,50979,1827,3,1720
1787750925.590309,2026-08-26T13:28:45.590309+00:00,442652.359000,520,3134753,95.665069580,50979,1827,3,1723
1787750925.590309,2026-08-26T13:28:45.590309+00:00,442652.359000,521,3135009,95.672882080,50979,1827,3,1725
1787750925.590309,2026-08-26T13:28:45.590309+00:00,442652.359000,522,3135265,95.680694580,50979,1827,3,1727
1787750925.590309,2026-08-26T13:28:45.590309+00:00,442652.359000,523,3135521,95.688507080,50979,1827,3,1728
1787750925.590309,2026-08-26T13:28:45.590309+00:00,442652.359000,524,3135777,95.696319580,50980,1828,3,1728
1787750925.590309,2026-08-26T13:28:45.590309+00:00,442652.359000,525,3136033,95.704132080,50980,1828,3,1726
1787750925.590309,2026-08-26T13:28:45.590309+00:00,442652.359000,526,3136289,95.711944580,50980,1828,3,1724
1787750925.590309,2026-08-26T13:28:45.590309+00:00,442652.359000,527,3136545,95.719757080,50980,1828,3,1723
1787750925.590309,2026-08-26T13:28:45.590309+00:00,442652.359000,528,3136801,95.727569580,50981,1829,3,1723
1787750925.590309,2026-08-26T13:28:45.590309+00:00,442652.359000,529,3137057,95.735382080,50981,1829,3,1727
1787750925.590309,2026-08-26T13:28:45.590309+00:00,442652.359000,530,3137313,95.743194580,50982,1830,3,1729
1787750925.690523,2026-08-26T13:28:45.690523+00:00,442652.453000,531,3137569,95.751007080,50982,1830,3,1731
1787750925.690523,2026-08-26T13:28:45.690523+00:00,442652.453000,532,3137825,95.758819580,50982,1830,3,1732
1787750925.690523,2026-08-26T13:28:45.690523+00:00,442652.453000,533,3138081,95.766632080,50982,1830,3,1733
1787750925.690523,2026-08-26T13:28:45.690523+00:00,442652.453000,534,3138337,95.774444580,50982,1830,3,1732
1787750925.690523,2026-08-26T13:28:45.690523+00:00,442652.453000,535,3138593,95.782257080,50983,1831,3,1733
1787750925.690523,2026-08-26T13:28:45.690523+00:00,442652.453000,536,3138849,95.790069580,50983,1831,3,1737
1787750925.690523,2026-08-26T13:28:45.690523+00:00,442652.453000,537,3139105,95.797882080,50983,1831,3,1739
1787750925.690523,2026-08-26T13:28:45.690523+00:00,442652.453000,538,3139361,95.805694580,50983,1831,3,1740
1787750925.690523,2026-08-26T13:28:45.690523+00:00,442652.453000,539,3139617,95.813507080,50983,1831,3,1741
1787750925.690523,2026-08-26T13:28:45.690523+00:00,442652.453000,540,3139873,95.821319580,50983,1831,3,1741
1787750925.690523,2026-08-26T13:28:45.690523+00:00,442652.453000,541,3140129,95.829132080,50983,1831,3,1742
1787750925.690523,2026-08-26T13:28:45.690523+00:00,442652.453000,542,3140385,95.836944580,50983,1831,3,1742
1787750925.791436,2026-08-26T13:28:45.791436+00:00,442652.562000,543,3140641,95.844757080,50984,1832,3,1742
1787750925.791436,2026-08-26T13:28:45.791436+00:00,442652.562000,544,3140897,95.852569580,50984,1832,3,1739
1787750925.791436,2026-08-26T13:28:45.791436+00:00,442652.562000,545,3141153,95.860382080,50984,1832,3,1738
1787750925.791436,2026-08-26T13:28:45.791436+00:00,442652.562000,546,3141409,95.868194580,50984,1832,3,1737
1787750925.791436,2026-08-26T13:28:45.791436+00:00,442652.562000,547,3141665,95.876007080,50985,1833,3,1736
1787750925.791436,2026-08-26T13:28:45.791436+00:00,442652.562000,548,3141921,95.883819580,50985,1833,3,1740
1787750925.791436,2026-08-26T13:28:45.791436+00:00,442652.562000,549,3142177,95.891632080,50985,1833,3,1742
1787750925.791436,2026-08-26T13:28:45.791436+00:00,442652.562000,550,3142433,95.899444580,50986,1834,3,1743
1787750925.791436,2026-08-26T13:28:45.791436+00:00,442652.562000,551,3142689,95.907257080,50986,1834,3,1745
1787750925.791436,2026-08-26T13:28:45.791436+00:00,442652.562000,552,3142945,95.915069580,50986,1834,3,1746
1787750925.791436,2026-08-26T13:28:45.791436+00:00,442652.562000,553,3143201,95.922882080,50986,1834,3,1746
1787750925.791436,2026-08-26T13:28:45.791436+00:00,442652.562000,554,3143457,95.930694580,50986,1834,3,1746
1787750925.892136,2026-08-26T13:28:45.892136+00:00,442652.656000,555,3143713,95.938507080,50986,1834,3,1747
1787750925.892136,2026-08-26T13:28:45.892136+00:00,442652.656000,556,3143969,95.946319580,50986,1834,3,1747
1787750925.892136,2026-08-26T13:28:45.892136+00:00,442652.656000,557,3144225,95.954132080,50986,1834,3,1747
1787750925.892136,2026-08-26T13:28:45.892136+00:00,442652.656000,558,3144481,95.961944580,50986,1834,3,1747
1787750925.892136,2026-08-26T13:28:45.892136+00:00,442652.656000,559,3144737,95.969757080,50986,1834,3,1747
1787750925.892136,2026-08-26T13:28:45.892136+00:00,442652.656000,560,3144993,95.977569580,50986,1834,3,1747
1787750925.892136,2026-08-26T13:28:45.892136+00:00,442652.656000,561,3145249,95.985382080,50987,1835,3,1747
1787750925.892136,2026-08-26T13:28:45.892136+00:00,442652.656000,562,3145505,95.993194580,50987,1835,3,1751
1787750925.892136,2026-08-26T13:28:45.892136+00:00,442652.656000,563,3145761,96.001007080,50986,1834,3,1753
1787750925.892136,2026-08-26T13:28:45.892136+00:00,442652.656000,564,3146017,96.008819580,50987,1835,3,1751
1787750925.892136,2026-08-26T13:28:45.892136+00:00,442652.656000,565,3146273,96.016632080,50987,1835,3,1753
1787750925.892136,2026-08-26T13:28:45.892136+00:00,442652.656000,566,3146529,96.024444580,50987,1835,3,1754
1787750925.892136,2026-08-26T13:28:45.892136+00:00,442652.656000,567,3146785,96.032257080,50988,1836,3,1755
1787750925.992640,2026-08-26T13:28:45.992640+00:00,442652.765000,568,3147041,96.040069580,50988,1836,3,1752
1787750925.992640,2026-08-26T13:28:45.992640+00:00,442652.765000,569,3147297,96.047882080,50988,1836,3,1751
1787750925.992640,2026-08-26T13:28:45.992640+00:00,442652.765000,570,3147553,96.055694580,50988,1836,3,1751
1787750925.992640,2026-08-26T13:28:45.992640+00:00,442652.765000,571,3147809,96.063507080,50989,1837,3,1750
1787750925.992640,2026-08-26T13:28:45.992640+00:00,442652.765000,572,3148065,96.071319580,50989,1837,3,1754
1787750925.992640,2026-08-26T13:28:45.992640+00:00,442652.765000,573,3148321,96.079132080,50989,1837,3,1756
1787750925.992640,2026-08-26T13:28:45.992640+00:00,442652.765000,574,3148577,96.086944580,50989,1837,3,1757
1787750925.992640,2026-08-26T13:28:45.992640+00:00,442652.765000,575,3148833,96.094757080,50989,1837,3,1758
1787750925.992640,2026-08-26T13:28:45.992640+00:00,442652.765000,576,3149089,96.102569580,50989,1837,3,1758
1787750925.992640,2026-08-26T13:28:45.992640+00:00,442652.765000,577,3149345,96.110382080,50990,1838,3,1759
1787750925.992640,2026-08-26T13:28:45.992640+00:00,442652.765000,578,3149601,96.118194580,50989,1837,3,1760
1787750925.992640,2026-08-26T13:28:45.992640+00:00,442652.765000,579,3149857,96.126007080,50989,1837,3,1759
1787750926.093004,2026-08-26T13:28:46.093004+00:00,442652.859000,580,3150113,96.133819580,50989,1837,3,1759
1787750926.093004,2026-08-26T13:28:46.093004+00:00,442652.859000,581,3150369,96.141632080,50989,1837,3,1759
1787750926.093004,2026-08-26T13:28:46.093004+00:00,442652.859000,582,3150625,96.149444580,50989,1837,3,1759
1787750926.093004,2026-08-26T13:28:46.093004+00:00,442652.859000,583,3150881,96.157257080,50989,1837,3,1759
1787750926.093004,2026-08-26T13:28:46.093004+00:00,442652.859000,584,3151137,96.165069580,50989,1837,3,1759
1787750926.093004,2026-08-26T13:28:46.093004+00:00,442652.859000,585,3151393,96.172882080,50988,1836,3,1759
1787750926.093004,2026-08-26T13:28:46.093004+00:00,442652.859000,586,3151649,96.180694580,50988,1836,3,1755
1787750926.093004,2026-08-26T13:28:46.093004+00:00,442652.859000,587,3151905,96.188507080,50989,1837,3,1753
1787750926.093004,2026-08-26T13:28:46.093004+00:00,442652.859000,588,3152161,96.196319580,50988,1836,3,1755
1787750926.093004,2026-08-26T13:28:46.093004+00:00,442652.859000,589,3152417,96.204132080,50988,1836,3,1753
1787750926.093004,2026-08-26T13:28:46.093004+00:00,442652.859000,590,3152673,96.211944580,50988,1836,3,1752
1787750926.093004,2026-08-26T13:28:46.093004+00:00,442652.859000,591,3152929,96.219757080,50988,1836,3,1751
1787750926.093004,2026-08-26T13:28:46.093004+00:00,442652.859000,592,3153185,96.227569580,50988,1836,3,1751
1787750926.093004,2026-08-26T13:28:46.093004+00:00,442652.859000,593,3153441,96.235382080,50988,1836,3,1751
1787750926.093004,2026-08-26T13:28:46.093004+00:00,442652.859000,594,3153697,96.243194580,50988,1836,3,1750
1787750926.193018,2026-08-26T13:28:46.193018+00:00,442652.968000,595,3153953,96.251007080,50987,1835,3,1750
1787750926.193018,2026-08-26T13:28:46.193018+00:00,442652.968000,596,3154209,96.258819580,50987,1835,3,1753
1787750926.193018,2026-08-26T13:28:46.193018+00:00,442652.968000,597,3154465,96.266632080,50987,1835,3,1754
1787750926.193018,2026-08-26T13:28:46.193018+00:00,442652.968000,598,3154721,96.274444580,50987,1835,3,1755
1787750926.193018,2026-08-26T13:28:46.193018+00:00,442652.968000,599,3154977,96.282257080,50987,1835,3,1755
1787750926.193018,2026-08-26T13:28:46.193018+00:00,442652.968000,600,3155233,96.290069580,50987,1835,3,1756
1787750926.193018,2026-08-26T13:28:46.193018+00:00,442652.968000,601,3155489,96.297882080,50987,1835,3,1755
1787750926.193018,2026-08-26T13:28:46.193018+00:00,442652.968000,602,3155745,96.305694580,50987,1835,3,1756
1787750926.193018,2026-08-26T13:28:46.193018+00:00,442652.968000,603,3156001,96.313507080,50987,1835,3,1755
1787750926.193018,2026-08-26T13:28:46.193018+00:00,442652.968000,604,3156257,96.321319580,50987,1835,3,1756
1787750926.293802,2026-08-26T13:28:46.293802+00:00,442653.062000,605,3156513,96.329132080,50986,1834,3,1755
1787750926.293802,2026-08-26T13:28:46.293802+00:00,442653.062000,606,3156769,96.336944580,50986,1834,3,1751
1787750926.293802,2026-08-26T13:28:46.293802+00:00,442653.062000,607,3157025,96.344757080,50986,1834,3,1750
1787750926.293802,2026-08-26T13:28:46.293802+00:00,442653.062000,608,3157281,96.352569580,50986,1834,3,1748
1787750926.293802,2026-08-26T13:28:46.293802+00:00,442653.062000,609,3157537,96.360382080,50985,1833,3,1748
1787750926.293802,2026-08-26T13:28:46.293802+00:00,442653.062000,610,3157793,96.368194580,50985,1833,3,1746
1787750926.293802,2026-08-26T13:28:46.293802+00:00,442653.062000,611,3158049,96.376007080,50985,1833,3,1746
1787750926.293802,2026-08-26T13:28:46.293802+00:00,442653.062000,612,3158305,96.383819580,50985,1833,3,1745
1787750926.293802,2026-08-26T13:28:46.293802+00:00,442653.062000,613,3158561,96.391632080,50985,1833,3,1745
1787750926.293802,2026-08-26T13:28:46.293802+00:00,442653.062000,614,3158817,96.399444580,50984,1832,3,1745
1787750926.293802,2026-08-26T13:28:46.293802+00:00,442653.062000,615,3159073,96.407257080,50984,1832,3,1741
1787750926.293802,2026-08-26T13:28:46.293802+00:00,442653.062000,616,3159329,96.415069580,50984,1832,3,1739
1787750926.293802,2026-08-26T13:28:46.293802+00:00,442653.062000,617,3159585,96.422882080,50984,1832,3,1738
1787750926.293802,2026-08-26T13:28:46.293802+00:00,442653.062000,618,3159841,96.430694580,50984,1832,3,1737
1787750926.394160,2026-08-26T13:28:46.394160+00:00,442653.156000,619,3160097,96.438507080,50984,1832,3,1737
1787750926.394160,2026-08-26T13:28:46.394160+00:00,442653.156000,620,3160353,96.446319580,50984,1832,3,1736
1787750926.394160,2026-08-26T13:28:46.394160+00:00,442653.156000,621,3160609,96.454132080,50984,1832,3,1736
1787750926.394160,2026-08-26T13:28:46.394160+00:00,442653.156000,622,3160865,96.461944580,50984,1832,3,1736
1787750926.394160,2026-08-26T13:28:46.394160+00:00,442653.156000,623,3161121,96.469757080,50984,1832,3,1736
1787750926.394160,2026-08-26T13:28:46.394160+00:00,442653.156000,624,3161377,96.477569580,50984,1832,3,1736
1787750926.394160,2026-08-26T13:28:46.394160+00:00,442653.156000,625,3161633,96.485382080,50984,1832,3,1736
1787750926.394160,2026-08-26T13:28:46.394160+00:00,442653.156000,626,3161889,96.493194580,50984,1832,3,1736
1787750926.394160,2026-08-26T13:28:46.394160+00:00,442653.156000,627,3162145,96.501007080,50984,1832,3,1736
1787750926.394160,2026-08-26T13:28:46.394160+00:00,442653.156000,628,3162401,96.508819580,50984,1832,3,1736
1787750926.394160,2026-08-26T13:28:46.394160+00:00,442653.156000,629,3162657,96.516632080,50983,1831,3,1736
1787750926.394160,2026-08-26T13:28:46.394160+00:00,442653.156000,630,3162913,96.524444580,50983,1831,3,1739
1787750926.394160,2026-08-26T13:28:46.394160+00:00,442653.156000,631,3163169,96.532257080,50983,1831,3,1740
1787750926.494589,2026-08-26T13:28:46.494589+00:00,442653.265000,632,3163425,96.540069580,50983,1831,3,1741
1787750926.494589,2026-08-26T13:28:46.494589+00:00,442653.265000,633,3163681,96.547882080,50983,1831,3,1742
1787750926.494589,2026-08-26T13:28:46.494589+00:00,442653.265000,634,3163937,96.555694580,50983,1831,3,1742
1787750926.494589,2026-08-26T13:28:46.494589+00:00,442653.265000,635,3164193,96.563507080,50983,1831,3,1742
1787750926.494589,2026-08-26T13:28:46.494589+00:00,442653.265000,636,3164449,96.571319580,50983,1831,3,1742
1787750926.494589,2026-08-26T13:28:46.494589+00:00,442653.265000,637,3164705,96.579132080,50983,1831,3,1742
1787750926.494589,2026-08-26T13:28:46.494589+00:00,442653.265000,638,3164961,96.586944580,50983,1831,3,1742
1787750926.494589,2026-08-26T13:28:46.494589+00:00,442653.265000,639,3165217,96.594757080,50983,1831,3,1742
1787750926.494589,2026-08-26T13:28:46.494589+00:00,442653.265000,640,3165473,96.602569580,50983,1831,3,1742
1787750926.494589,2026-08-26T13:28:46.494589+00:00,442653.265000,641,3165729,96.610382080,50983,1831,3,1742
1787750926.494589,2026-08-26T13:28:46.494589+00:00,442653.265000,642,3165985,96.618194580,50982,1830,3,1742
1787750926.494589,2026-08-26T13:28:46.494589+00:00,442653.265000,643,3166241,96.626007080,50982,1830,3,1738
1787750926.594939,2026-08-26T13:28:46.594939+00:00,442653.359000,644,3166497,96.633819580,50983,1831,3,1736
1787750926.594939,2026-08-26T13:28:46.594939+00:00,442653.359000,645,3166753,96.641632080,50982,1830,3,1739
1787750926.594939,2026-08-26T13:28:46.594939+00:00,442653.359000,646,3167009,96.649444580,50982,1830,3,1736
1787750926.594939,2026-08-26T13:28:46.594939+00:00,442653.359000,647,3167265,96.657257080,50982,1830,3,1735
1787750926.594939,2026-08-26T13:28:46.594939+00:00,442653.359000,648,3167521,96.665069580,50983,1831,3,1734
1787750926.594939,2026-08-26T13:28:46.594939+00:00,442653.359000,649,3167777,96.672882080,50982,1830,3,1737
1787750926.594939,2026-08-26T13:28:46.594939+00:00,442653.359000,650,3168033,96.680694580,50982,1830,3,1736
1787750926.594939,2026-08-26T13:28:46.594939+00:00,442653.359000,651,3168289,96.688507080,50982,1830,3,1735
1787750926.594939,2026-08-26T13:28:46.594939+00:00,442653.359000,652,3168545,96.696319580,50982,1830,3,1734
1787750926.594939,2026-08-26T13:28:46.594939+00:00,442653.359000,653,3168801,96.704132080,50982,1830,3,1734
1787750926.594939,2026-08-26T13:28:46.594939+00:00,442653.359000,654,3169057,96.711944580,50982,1830,3,1733
1787750926.594939,2026-08-26T13:28:46.594939+00:00,442653.359000,655,3169313,96.719757080,50981,1829,3,1733
1787750926.594939,2026-08-26T13:28:46.594939+00:00,442653.359000,656,3169569,96.727569580,50982,1830,3,1733
1787750926.594939,2026-08-26T13:28:46.594939+00:00,442653.359000,657,3169825,96.735382080,50982,1830,3,1733
1787750926.594939,2026-08-26T13:28:46.594939+00:00,442653.359000,658,3170081,96.743194580,50982,1830,3,1733
1787750926.694941,2026-08-26T13:28:46.694941+00:00,442653.468000,659,3170337,96.751007080,50982,1830,3,1733
1787750926.694941,2026-08-26T13:28:46.694941+00:00,442653.468000,660,3170593,96.758819580,50982,1830,3,1733
1787750926.694941,2026-08-26T13:28:46.694941+00:00,442653.468000,661,3170849,96.766632080,50982,1830,3,1733
1787750926.694941,2026-08-26T13:28:46.694941+00:00,442653.468000,662,3171105,96.774444580,50982,1830,3,1733
1787750926.694941,2026-08-26T13:28:46.694941+00:00,442653.468000,663,3171361,96.782257080,50982,1830,3,1733
1787750926.694941,2026-08-26T13:28:46.694941+00:00,442653.468000,664,3171617,96.790069580,50982,1830,3,1733
1787750926.694941,2026-08-26T13:28:46.694941+00:00,442653.468000,665,3171873,96.797882080,50982,1830,3,1733
1787750926.694941,2026-08-26T13:28:46.694941+00:00,442653.468000,666,3172129,96.805694580,50982,1830,3,1733
1787750926.694941,2026-08-26T13:28:46.694941+00:00,442653.468000,667,3172385,96.813507080,50982,1830,3,1733
1787750926.694941,2026-08-26T13:28:46.694941+00:00,442653.468000,668,3172641,96.821319580,50982,1830,3,1733
1787750926.694941,2026-08-26T13:28:46.694941+00:00,442653.468000,669,3172897,96.829132080,50981,1829,3,1733
1787750926.694941,2026-08-26T13:28:46.694941+00:00,442653.468000,670,3173153,96.836944580,50981,1829,3,1732
1787750926.795346,2026-08-26T13:28:46.795346+00:00,442653.562000,671,3173409,96.844757080,50981,1829,3,1732
1787750926.795346,2026-08-26T13:28:46.795346+00:00,442653.562000,672,3173665,96.852569580,50982,1830,3,1732
1787750926.795346,2026-08-26T13:28:46.795346+00:00,442653.562000,673,3173921,96.860382080,50981,1829,3,1732
1787750926.795346,2026-08-26T13:28:46.795346+00:00,442653.562000,674,3174177,96.868194580,50982,1830,3,1732
1787750926.795346,2026-08-26T13:28:46.795346+00:00,442653.562000,675,3174433,96.876007080,50982,1830,3,1733
1787750926.795346,2026-08-26T13:28:46.795346+00:00,442653.562000,676,3174689,96.883819580,50981,1829,3,1732
1787750926.795346,2026-08-26T13:28:46.795346+00:00,442653.562000,677,3174945,96.891632080,50981,1829,3,1732
1787750926.795346,2026-08-26T13:28:46.795346+00:00,442653.562000,678,3175201,96.899444580,50982,1830,3,1732
1787750926.795346,2026-08-26T13:28:46.795346+00:00,442653.562000,679,3175457,96.907257080,50982,1830,3,1732
1787750926.795346,2026-08-26T13:28:46.795346+00:00,442653.562000,680,3175713,96.915069580,50981,1829,3,1733
1787750926.795346,2026-08-26T13:28:46.795346+00:00,442653.562000,681,3175969,96.922882080,50982,1830,3,1732
1787750926.795346,2026-08-26T13:28:46.795346+00:00,442653.562000,682,3176225,96.930694580,50982,1830,3,1732
1787750926.895863,2026-08-26T13:28:46.895863+00:00,442653.671000,683,3176481,96.938507080,50981,1829,3,1732
1787750926.895863,2026-08-26T13:28:46.895863+00:00,442653.671000,684,3176737,96.946319580,50981,1829,3,1732
1787750926.895863,2026-08-26T13:28:46.895863+00:00,442653.671000,685,3176993,96.954132080,50981,1829,3,1732
1787750926.895863,2026-08-26T13:28:46.895863+00:00,442653.671000,686,3177249,96.961944580,50981,1829,3,1731
1787750926.895863,2026-08-26T13:28:46.895863+00:00,442653.671000,687,3177505,96.969757080,50981,1829,3,1732
1787750926.895863,2026-08-26T13:28:46.895863+00:00,442653.671000,688,3177761,96.977569580,50981,1829,3,1732
1787750926.895863,2026-08-26T13:28:46.895863+00:00,442653.671000,689,3178017,96.985382080,50981,1829,3,1731
1787750926.895863,2026-08-26T13:28:46.895863+00:00,442653.671000,690,3178273,96.993194580,50982,1830,3,1731
1787750926.895863,2026-08-26T13:28:46.895863+00:00,442653.671000,691,3178529,97.001007080,50981,1829,3,1732
1787750926.895863,2026-08-26T13:28:46.895863+00:00,442653.671000,692,3178785,97.008819580,50981,1829,3,1732
1787750926.895863,2026-08-26T13:28:46.895863+00:00,442653.671000,693,3179041,97.016632080,50981,1829,3,1732
1787750926.895863,2026-08-26T13:28:46.895863+00:00,442653.671000,694,3179297,97.024444580,50981,1829,3,1731
1787750926.895863,2026-08-26T13:28:46.895863+00:00,442653.671000,695,3179553,97.032257080,50981,1829,3,1732
1787750926.995943,2026-08-26T13:28:46.995943+00:00,442653.765000,696,3179809,97.040069580,50981,1829,3,1731
1787750926.995943,2026-08-26T13:28:46.995943+00:00,442653.765000,697,3180065,97.047882080,50981,1829,3,1731
1787750926.995943,2026-08-26T13:28:46.995943+00:00,442653.765000,698,3180321,97.055694580,50980,1828,3,1731
1787750926.995943,2026-08-26T13:28:46.995943+00:00,442653.765000,699,3180577,97.063507080,50980,1828,3,1728
1787750926.995943,2026-08-26T13:28:46.995943+00:00,442653.765000,700,3180833,97.071319580,50980,1828,3,1726
1787750926.995943,2026-08-26T13:28:46.995943+00:00,442653.765000,701,3181089,97.079132080,50980,1828,3,1725
1787750926.995943,2026-08-26T13:28:46.995943+00:00,442653.765000,702,3181345,97.086944580,50980,1828,3,1723
1787750926.995943,2026-08-26T13:28:46.995943+00:00,442653.765000,703,3181601,97.094757080,50980,1828,3,1723
1787750926.995943,2026-08-26T13:28:46.995943+00:00,442653.765000,704,3181857,97.102569580,50980,1828,3,1723
1787750926.995943,2026-08-26T13:28:46.995943+00:00,442653.765000,705,3182113,97.110382080,50980,1828,3,1723
1787750926.995943,2026-08-26T13:28:46.995943+00:00,442653.765000,706,3182369,97.118194580,50980,1828,3,1723
1787750926.995943,2026-08-26T13:28:46.995943+00:00,442653.765000,707,3182625,97.126007080,50980,1828,3,1723
1787750926.995943,2026-08-26T13:28:46.995943+00:00,442653.765000,708,3182881,97.133819580,50980,1828,3,1722
1787750926.995943,2026-08-26T13:28:46.995943+00:00,442653.765000,709,3183137,97.141632080,50980,1828,3,1723
1787750927.096055,2026-08-26T13:28:47.096055+00:00,442653.859000,710,3183393,97.149444580,50980,1828,3,1722
1787750927.096055,2026-08-26T13:28:47.096055+00:00,442653.859000,711,3183649,97.157257080,50980,1828,3,1723
1787750927.096055,2026-08-26T13:28:47.096055+00:00,442653.859000,712,3183905,97.165069580,50980,1828,3,1723
1787750927.096055,2026-08-26T13:28:47.096055+00:00,442653.859000,713,3184161,97.172882080,50980,1828,3,1723
1787750927.096055,2026-08-26T13:28:47.096055+00:00,442653.859000,714,3184417,97.180694580,50980,1828,3,1722
1787750927.096055,2026-08-26T13:28:47.096055+00:00,442653.859000,715,3184673,97.188507080,50980,1828,3,1723
1787750927.096055,2026-08-26T13:28:47.096055+00:00,442653.859000,716,3184929,97.196319580,50980,1828,3,1722
1787750927.096055,2026-08-26T13:28:47.096055+00:00,442653.859000,717,3185185,97.204132080,50980,1828,3,1723
1787750927.096055,2026-08-26T13:28:47.096055+00:00,442653.859000,718,3185441,97.211944580,50980,1828,3,1723
1787750927.096055,2026-08-26T13:28:47.096055+00:00,442653.859000,719,3185697,97.219757080,50979,1827,3,1722
1787750927.096055,2026-08-26T13:28:47.096055+00:00,442653.859000,720,3185953,97.227569580,50980,1828,3,1726
1787750927.096055,2026-08-26T13:28:47.096055+00:00,442653.859000,721,3186209,97.235382080,50980,1828,3,1724
1787750927.096055,2026-08-26T13:28:47.096055+00:00,442653.859000,722,3186465,97.243194580,50980,1828,3,1723
1787750927.196294,2026-08-26T13:28:47.196294+00:00,442653.968000,723,3186721,97.251007080,50980,1828,3,1723
1787750927.196294,2026-08-26T13:28:47.196294+00:00,442653.968000,724,3186977,97.258819580,50980,1828,3,1723
1787750927.196294,2026-08-26T13:28:47.196294+00:00,442653.968000,725,3187233,97.266632080,50980,1828,3,1723
1787750927.196294,2026-08-26T13:28:47.196294+00:00,442653.968000,726,3187489,97.274444580,50980,1828,3,1722
1787750927.196294,2026-08-26T13:28:47.196294+00:00,442653.968000,727,3187745,97.282257080,50980,1828,3,1723
1787750927.196294,2026-08-26T13:28:47.196294+00:00,442653.968000,728,3188001,97.290069580,50980,1828,3,1722
1787750927.196294,2026-08-26T13:28:47.196294+00:00,442653.968000,729,3188257,97.297882080,50980,1828,3,1722
1787750927.196294,2026-08-26T13:28:47.196294+00:00,442653.968000,730,3188513,97.305694580,50979,1827,3,1723
1787750927.196294,2026-08-26T13:28:47.196294+00:00,442653.968000,731,3188769,97.313507080,50980,1828,3,1725
1787750927.196294,2026-08-26T13:28:47.196294+00:00,442653.968000,732,3189025,97.321319580,50980,1828,3,1724
1787750927.196294,2026-08-26T13:28:47.196294+00:00,442653.968000,733,3189281,97.329132080,50980,1828,3,1724
1787750927.196294,2026-08-26T13:28:47.196294+00:00,442653.968000,734,3189537,97.336944580,50980,1828,3,1723
1787750927.296665,2026-08-26T13:28:47.296665+00:00,442654.062000,735,3189793,97.344757080,50980,1828,3,1723
1787750927.296665,2026-08-26T13:28:47.296665+00:00,442654.062000,736,3190049,97.352569580,50980,1828,3,1723
1787750927.296665,2026-08-26T13:28:47.296665+00:00,442654.062000,737,3190305,97.360382080,50980,1828,3,1722
1787750927.296665,2026-08-26T13:28:47.296665+00:00,442654.062000,738,3190561,97.368194580,50980,1828,3,1723
1787750927.296665,2026-08-26T13:28:47.296665+00:00,442654.062000,739,3190817,97.376007080,50980,1828,3,1723
1787750927.296665,2026-08-26T13:28:47.296665+00:00,442654.062000,740,3191073,97.383819580,50980,1828,3,1723
1787750927.296665,2026-08-26T13:28:47.296665+00:00,442654.062000,741,3191329,97.391632080,50980,1828,3,1723
1787750927.296665,2026-08-26T13:28:47.296665+00:00,442654.062000,742,3191585,97.399444580,50980,1828,3,1723
1787750927.296665,2026-08-26T13:28:47.296665+00:00,442654.062000,743,3191841,97.407257080,50980,1828,3,1722
1787750927.296665,2026-08-26T13:28:47.296665+00:00,442654.062000,744,3192097,97.415069580,50980,1828,3,1723
1787750927.296665,2026-08-26T13:28:47.296665+00:00,442654.062000,745,3192353,97.422882080,50980,1828,3,1723
1787750927.296665,2026-08-26T13:28:47.296665+00:00,442654.062000,746,3192609,97.430694580,50980,1828,3,1723
1787750927.296665,2026-08-26T13:28:47.296665+00:00,442654.062000,747,3192865,97.438507080,50980,1828,3,1723
1787750927.296665,2026-08-26T13:28:47.296665+00:00,442654.062000,748,3193121,97.446319580,50981,1829,3,1723
1787750927.397557,2026-08-26T13:28:47.397557+00:00,442654.171000,749,3193377,97.454132080,50980,1828,3,1726
1787750927.397557,2026-08-26T13:28:47.397557+00:00,442654.171000,750,3193633,97.461944580,50980,1828,3,1725
1787750927.397557,2026-08-26T13:28:47.397557+00:00,442654.171000,751,3193889,97.469757080,50980,1828,3,1724
1787750927.397557,2026-08-26T13:28:47.397557+00:00,442654.171000,752,3194145,97.477569580,50980,1828,3,1723
1787750927.397557,2026-08-26T13:28:47.397557+00:00,442654.171000,753,3194401,97.485382080,50981,1829,3,1723
1787750927.397557,2026-08-26T13:28:47.397557+00:00,442654.171000,754,3194657,97.493194580,50981,1829,3,1727
1787750927.397557,2026-08-26T13:28:47.397557+00:00,442654.171000,755,3194913,97.501007080,50981,1829,3,1729
1787750927.397557,2026-08-26T13:28:47.397557+00:00,442654.171000,756,3195169,97.508819580,50981,1829,3,1730
1787750927.397557,2026-08-26T13:28:47.397557+00:00,442654.171000,757,3195425,97.516632080,50981,1829,3,1731
1787750927.397557,2026-08-26T13:28:47.397557+00:00,442654.171000,758,3195681,97.524444580,50981,1829,3,1731
1787750927.397557,2026-08-26T13:28:47.397557+00:00,442654.171000,759,3195937,97.532257080,50981,1829,3,1731
1787750927.397557,2026-08-26T13:28:47.397557+00:00,442654.171000,760,3196193,97.540069580,50981,1829,3,1731
1787750927.397557,2026-08-26T13:28:47.397557+00:00,442654.171000,761,3196449,97.547882080,50981,1829,3,1731
1787750927.498439,2026-08-26T13:28:47.498439+00:00,442654.265000,762,3196705,97.555694580,50981,1829,3,1731
1787750927.498439,2026-08-26T13:28:47.498439+00:00,442654.265000,763,3196961,97.563507080,50981,1829,3,1731
1787750927.498439,2026-08-26T13:28:47.498439+00:00,442654.265000,764,3197217,97.571319580,50981,1829,3,1732
1787750927.498439,2026-08-26T13:28:47.498439+00:00,442654.265000,765,3197473,97.579132080,50982,1830,3,1732
1787750927.498439,2026-08-26T13:28:47.498439+00:00,442654.265000,766,3197729,97.586944580,50982,1830,3,1732
1787750927.498439,2026-08-26T13:28:47.498439+00:00,442654.265000,767,3197985,97.594757080,50982,1830,3,1732
1787750927.498439,2026-08-26T13:28:47.498439+00:00,442654.265000,768,3198241,97.602569580,50981,1829,3,1733
1787750927.498439,2026-08-26T13:28:47.498439+00:00,442654.265000,769,3198497,97.610382080,50982,1830,3,1732
1787750927.498439,2026-08-26T13:28:47.498439+00:00,442654.265000,770,3198753,97.618194580,50981,1829,3,1732
1787750927.498439,2026-08-26T13:28:47.498439+00:00,442654.265000,771,3199009,97.626007080,50982,1830,3,1732
1787750927.599287,2026-08-26T13:28:47.599287+00:00,442654.375000,772,3199265,97.633819580,50982,1830,3,1732
1787750927.599287,2026-08-26T13:28:47.599287+00:00,442654.375000,773,3199521,97.641632080,50982,1830,3,1733
1787750927.599287,2026-08-26T13:28:47.599287+00:00,442654.375000,774,3199777,97.649444580,50982,1830,3,1733
1787750927.599287,2026-08-26T13:28:47.599287+00:00,442654.375000,775,3200033,97.657257080,50982,1830,3,1733
1787750927.599287,2026-08-26T13:28:47.599287+00:00,442654.375000,776,3200289,97.665069580,50982,1830,3,1733
1787750927.599287,2026-08-26T13:28:47.599287+00:00,442654.375000,777,3200545,97.672882080,50982,1830,3,1733
1787750927.599287,2026-08-26T13:28:47.599287+00:00,442654.375000,778,3200801,97.680694580,50983,1831,3,1733
1787750927.599287,2026-08-26T13:28:47.599287+00:00,442654.375000,779,3201057,97.688507080,50982,1830,3,1737
1787750927.599287,2026-08-26T13:28:47.599287+00:00,442654.375000,780,3201313,97.696319580,50982,1830,3,1735
1787750927.599287,2026-08-26T13:28:47.599287+00:00,442654.375000,781,3201569,97.704132080,50982,1830,3,1734
1787750927.599287,2026-08-26T13:28:47.599287+00:00,442654.375000,782,3201825,97.711944580,50983,1831,3,1734
1787750927.599287,2026-08-26T13:28:47.599287+00:00,442654.375000,783,3202081,97.719757080,50983,1831,3,1738
1787750927.599287,2026-08-26T13:28:47.599287+00:00,442654.375000,784,3202337,97.727569580,50983,1831,3,1739
1787750927.599287,2026-08-26T13:28:47.599287+00:00,442654.375000,785,3202593,97.735382080,50983,1831,3,1740
1787750927.599287,2026-08-26T13:28:47.599287+00:00,442654.375000,786,3202849,97.743194580,50983,1831,3,1741
1787750927.599287,2026-08-26T13:28:47.599287+00:00,442654.375000,787,3203105,97.751007080,50983,1831,3,1741
1787750927.700180,2026-08-26T13:28:47.700180+00:00,442654.468000,788,3203361,97.758819580,50982,1830,3,1742
1787750927.700180,2026-08-26T13:28:47.700180+00:00,442654.468000,789,3203617,97.766632080,50983,1831,3,1738
1787750927.700180,2026-08-26T13:28:47.700180+00:00,442654.468000,790,3203873,97.774444580,50983,1831,3,1739
1787750927.700180,2026-08-26T13:28:47.700180+00:00,442654.468000,791,3204129,97.782257080,50983,1831,3,1741
1787750927.700180,2026-08-26T13:28:47.700180+00:00,442654.468000,792,3204385,97.790069580,50983,1831,3,1741
1787750927.700180,2026-08-26T13:28:47.700180+00:00,442654.468000,793,3204641,97.797882080,50983,1831,3,1742
1787750927.700180,2026-08-26T13:28:47.700180+00:00,442654.468000,794,3204897,97.805694580,50983,1831,3,1741
1787750927.700180,2026-08-26T13:28:47.700180+00:00,442654.468000,795,3205153,97.813507080,50983,1831,3,1742
1787750927.700180,2026-08-26T13:28:47.700180+00:00,442654.468000,796,3205409,97.821319580,50983,1831,3,1742
1787750927.800650,2026-08-26T13:28:47.800650+00:00,442654.562000,797,3205665,97.829132080,50983,1831,3,1742
1787750927.800650,2026-08-26T13:28:47.800650+00:00,442654.562000,798,3205921,97.836944580,50983,1831,3,1742
1787750927.800650,2026-08-26T13:28:47.800650+00:00,442654.562000,799,3206177,97.844757080,50983,1831,3,1742
1787750927.800650,2026-08-26T13:28:47.800650+00:00,442654.562000,800,3206433,97.852569580,50983,1831,3,1742
1787750927.800650,2026-08-26T13:28:47.800650+00:00,442654.562000,801,3206689,97.860382080,50983,1831,3,1742
1787750927.800650,2026-08-26T13:28:47.800650+00:00,442654.562000,802,3206945,97.868194580,50983,1831,3,1742
1787750927.800650,2026-08-26T13:28:47.800650+00:00,442654.562000,803,3207201,97.876007080,50983,1831,3,1742
1787750927.800650,2026-08-26T13:28:47.800650+00:00,442654.562000,804,3207457,97.883819580,50983,1831,3,1742
1787750927.800650,2026-08-26T13:28:47.800650+00:00,442654.562000,805,3207713,97.891632080,50983,1831,3,1742
1787750927.800650,2026-08-26T13:28:47.800650+00:00,442654.562000,806,3207969,97.899444580,50983,1831,3,1742
1787750927.800650,2026-08-26T13:28:47.800650+00:00,442654.562000,807,3208225,97.907257080,50983,1831,3,1742
1787750927.800650,2026-08-26T13:28:47.800650+00:00,442654.562000,808,3208481,97.915069580,50983,1831,3,1742
1787750927.800650,2026-08-26T13:28:47.800650+00:00,442654.562000,809,3208737,97.922882080,50983,1831,3,1742
1787750927.800650,2026-08-26T13:28:47.800650+00:00,442654.562000,810,3208993,97.930694580,50984,1832,3,1742
1787750927.901422,2026-08-26T13:28:47.901422+00:00,442654.671000,811,3209249,97.938507080,50983,1831,3,1739
1787750927.901422,2026-08-26T13:28:47.901422+00:00,442654.671000,812,3209505,97.946319580,50984,1832,3,1741
1787750927.901422,2026-08-26T13:28:47.901422+00:00,442654.671000,813,3209761,97.954132080,50983,1831,3,1738
1787750927.901422,2026-08-26T13:28:47.901422+00:00,442654.671000,814,3210017,97.961944580,50983,1831,3,1740
1787750927.901422,2026-08-26T13:28:47.901422+00:00,442654.671000,815,3210273,97.969757080,50984,1832,3,1741
1787750927.901422,2026-08-26T13:28:47.901422+00:00,442654.671000,816,3210529,97.977569580,50983,1831,3,1739
1787750927.901422,2026-08-26T13:28:47.901422+00:00,442654.671000,817,3210785,97.985382080,50984,1832,3,1740
1787750927.901422,2026-08-26T13:28:47.901422+00:00,442654.671000,818,3211041,97.993194580,50984,1832,3,1738
1787750927.901422,2026-08-26T13:28:47.901422+00:00,442654.671000,819,3211297,98.001007080,50984,1832,3,1737
1787750927.901422,2026-08-26T13:28:47.901422+00:00,442654.671000,820,3211553,98.008819580,50984,1832,3,1737
1787750927.901422,2026-08-26T13:28:47.901422+00:00,442654.671000,821,3211809,98.016632080,50983,1831,3,1736
1787750927.901422,2026-08-26T13:28:47.901422+00:00,442654.671000,822,3212065,98.024444580,50983,1831,3,1739
1787750927.901422,2026-08-26T13:28:47.901422+00:00,442654.671000,823,3212321,98.032257080,50984,1832,3,1741
1787750928.001425,2026-08-26T13:28:48.001425+00:00,442654.765000,824,3212577,98.040069580,50984,1832,3,1738
1787750928.001425,2026-08-26T13:28:48.001425+00:00,442654.765000,825,3212833,98.047882080,50984,1832,3,1737
1787750928.001425,2026-08-26T13:28:48.001425+00:00,442654.765000,826,3213089,98.055694580,50984,1832,3,1737
1787750928.001425,2026-08-26T13:28:48.001425+00:00,442654.765000,827,3213345,98.063507080,50984,1832,3,1737
1787750928.001425,2026-08-26T13:28:48.001425+00:00,442654.765000,828,3213601,98.071319580,50984,1832,3,1736
1787750928.001425,2026-08-26T13:28:48.001425+00:00,442654.765000,829,3213857,98.079132080,50984,1832,3,1736
1787750928.001425,2026-08-26T13:28:48.001425+00:00,442654.765000,830,3214113,98.086944580,50984,1832,3,1736
1787750928.001425,2026-08-26T13:28:48.001425+00:00,442654.765000,831,3214369,98.094757080,50984,1832,3,1736
1787750928.001425,2026-08-26T13:28:48.001425+00:00,442654.765000,832,3214625,98.102569580,50984,1832,3,1736
1787750928.001425,2026-08-26T13:28:48.001425+00:00,442654.765000,833,3214881,98.110382080,50984,1832,3,1736
1787750928.001425,2026-08-26T13:28:48.001425+00:00,442654.765000,834,3215137,98.118194580,50984,1832,3,1736
1787750928.001425,2026-08-26T13:28:48.001425+00:00,442654.765000,835,3215393,98.126007080,50985,1833,3,1736
1787750928.001425,2026-08-26T13:28:48.001425+00:00,442654.765000,836,3215649,98.133819580,50984,1832,3,1740
1787750928.001425,2026-08-26T13:28:48.001425+00:00,442654.765000,837,3215905,98.141632080,50984,1832,3,1738
1787750928.102198,2026-08-26T13:28:48.102198+00:00,442654.875000,838,3216161,98.149444580,50985,1833,3,1737
1787750928.102198,2026-08-26T13:28:48.102198+00:00,442654.875000,839,3216417,98.157257080,50985,1833,3,1741
1787750928.102198,2026-08-26T13:28:48.102198+00:00,442654.875000,840,3216673,98.165069580,50985,1833,3,1742
1787750928.102198,2026-08-26T13:28:48.102198+00:00,442654.875000,841,3216929,98.172882080,50985,1833,3,1743
1787750928.102198,2026-08-26T13:28:48.102198+00:00,442654.875000,842,3217185,98.180694580,50985,1833,3,1744
1787750928.102198,2026-08-26T13:28:48.102198+00:00,442654.875000,843,3217441,98.188507080,50986,1834,3,1744
1787750928.102198,2026-08-26T13:28:48.102198+00:00,442654.875000,844,3217697,98.196319580,50986,1834,3,1745
1787750928.102198,2026-08-26T13:28:48.102198+00:00,442654.875000,845,3217953,98.204132080,50986,1834,3,1746
1787750928.102198,2026-08-26T13:28:48.102198+00:00,442654.875000,846,3218209,98.211944580,50986,1834,3,1746
1787750928.102198,2026-08-26T13:28:48.102198+00:00,442654.875000,847,3218465,98.219757080,50986,1834,3,1747
1787750928.102198,2026-08-26T13:28:48.102198+00:00,442654.875000,848,3218721,98.227569580,50986,1834,3,1746
1787750928.102198,2026-08-26T13:28:48.102198+00:00,442654.875000,849,3218977,98.235382080,50986,1834,3,1747
1787750928.102198,2026-08-26T13:28:48.102198+00:00,442654.875000,850,3219233,98.243194580,50986,1834,3,1746
1787750928.102198,2026-08-26T13:28:48.102198+00:00,442654.875000,851,3219489,98.251007080,50986,1834,3,1746
1787750928.202712,2026-08-26T13:28:48.202712+00:00,442654.968000,852,3219745,98.258819580,50986,1834,3,1746
1787750928.202712,2026-08-26T13:28:48.202712+00:00,442654.968000,853,3220001,98.266632080,50986,1834,3,1746
1787750928.202712,2026-08-26T13:28:48.202712+00:00,442654.968000,854,3220257,98.274444580,50986,1834,3,1747
1787750928.202712,2026-08-26T13:28:48.202712+00:00,442654.968000,855,3220513,98.282257080,50986,1834,3,1747
1787750928.202712,2026-08-26T13:28:48.202712+00:00,442654.968000,856,3220769,98.290069580,50986,1834,3,1747
1787750928.202712,2026-08-26T13:28:48.202712+00:00,442654.968000,857,3221025,98.297882080,50986,1834,3,1747
1787750928.202712,2026-08-26T13:28:48.202712+00:00,442654.968000,858,3221281,98.305694580,50986,1834,3,1747
1787750928.202712,2026-08-26T13:28:48.202712+00:00,442654.968000,859,3221537,98.313507080,50987,1835,3,1747
1787750928.202712,2026-08-26T13:28:48.202712+00:00,442654.968000,860,3221793,98.321319580,50986,1834,3,1751
1787750928.202712,2026-08-26T13:28:48.202712+00:00,442654.968000,861,3222049,98.329132080,50987,1835,3,1749
1787750928.202712,2026-08-26T13:28:48.202712+00:00,442654.968000,862,3222305,98.336944580,50986,1834,3,1752
1787750928.202712,2026-08-26T13:28:48.202712+00:00,442654.968000,863,3222561,98.344757080,50986,1834,3,1750
1787750928.202712,2026-08-26T13:28:48.202712+00:00,442654.968000,864,3222817,98.352569580,50987,1835,3,1748
1787750928.302833,2026-08-26T13:28:48.302833+00:00,442655.078000,865,3223073,98.360382080,50987,1835,3,1751
1787750928.302833,2026-08-26T13:28:48.302833+00:00,442655.078000,866,3223329,98.368194580,50987,1835,3,1753
1787750928.302833,2026-08-26T13:28:48.302833+00:00,442655.078000,867,3223585,98.376007080,50987,1835,3,1754
1787750928.302833,2026-08-26T13:28:48.302833+00:00,442655.078000,868,3223841,98.383819580,50987,1835,3,1755
1787750928.302833,2026-08-26T13:28:48.302833+00:00,442655.078000,869,3224097,98.391632080,50987,1835,3,1755
1787750928.302833,2026-08-26T13:28:48.302833+00:00,442655.078000,870,3224353,98.399444580,50987,1835,3,1755
1787750928.302833,2026-08-26T13:28:48.302833+00:00,442655.078000,871,3224609,98.407257080,50987,1835,3,1756
1787750928.302833,2026-08-26T13:28:48.302833+00:00,442655.078000,872,3224865,98.415069580,50988,1836,3,1756
1787750928.302833,2026-08-26T13:28:48.302833+00:00,442655.078000,873,3225121,98.422882080,50987,1835,3,1753
1787750928.302833,2026-08-26T13:28:48.302833+00:00,442655.078000,874,3225377,98.430694580,50987,1835,3,1754
1787750928.302833,2026-08-26T13:28:48.302833+00:00,442655.078000,875,3225633,98.438507080,50987,1835,3,1755
1787750928.302833,2026-08-26T13:28:48.302833+00:00,442655.078000,876,3225889,98.446319580,50987,1835,3,1755
1787750928.403772,2026-08-26T13:28:48.403772+00:00,442655.171000,877,3226145,98.454132080,50987,1835,3,1755
1787750928.403772,2026-08-26T13:28:48.403772+00:00,442655.171000,878,3226401,98.461944580,50987,1835,3,1755
1787750928.403772,2026-08-26T13:28:48.403772+00:00,442655.171000,879,3226657,98.469757080,50987,1835,3,1756
1787750928.403772,2026-08-26T13:28:48.403772+00:00,442655.171000,880,3226913,98.477569580,50987,1835,3,1755
1787750928.403772,2026-08-26T13:28:48.403772+00:00,442655.171000,881,3227169,98.485382080,50987,1835,3,1756
1787750928.403772,2026-08-26T13:28:48.403772+00:00,442655.171000,882,3227425,98.493194580,50987,1835,3,1755
1787750928.403772,2026-08-26T13:28:48.403772+00:00,442655.171000,883,3227681,98.501007080,50987,1835,3,1756
1787750928.403772,2026-08-26T13:28:48.403772+00:00,442655.171000,884,3227937,98.508819580,50987,1835,3,1755
1787750928.403772,2026-08-26T13:28:48.403772+00:00,442655.171000,885,3228193,98.516632080,50987,1835,3,1756
1787750928.403772,2026-08-26T13:28:48.403772+00:00,442655.171000,886,3228449,98.524444580,50987,1835,3,1755
1787750928.403772,2026-08-26T13:28:48.403772+00:00,442655.171000,887,3228705,98.532257080,50987,1835,3,1756
1787750928.503867,2026-08-26T13:28:48.503867+00:00,442655.265000,888,3228961,98.540069580,50987,1835,3,1755
1787750928.503867,2026-08-26T13:28:48.503867+00:00,442655.265000,889,3229217,98.547882080,50987,1835,3,1756
1787750928.503867,2026-08-26T13:28:48.503867+00:00,442655.265000,890,3229473,98.555694580,50987,1835,3,1755
1787750928.503867,2026-08-26T13:28:48.503867+00:00,442655.265000,891,3229729,98.563507080,50987,1835,3,1756
1787750928.503867,2026-08-26T13:28:48.503867+00:00,442655.265000,892,3229985,98.571319580,50987,1835,3,1756
1787750928.503867,2026-08-26T13:28:48.503867+00:00,442655.265000,893,3230241,98.579132080,50987,1835,3,1755
1787750928.503867,2026-08-26T13:28:48.503867+00:00,442655.265000,894,3230497,98.586944580,50987,1835,3,1756
1787750928.503867,2026-08-26T13:28:48.503867+00:00,442655.265000,895,3230753,98.594757080,50987,1835,3,1756
1787750928.503867,2026-08-26T13:28:48.503867+00:00,442655.265000,896,3231009,98.602569580,50988,1836,3,1756
1787750928.503867,2026-08-26T13:28:48.503867+00:00,442655.265000,897,3231265,98.610382080,50987,1835,3,1753
1787750928.503867,2026-08-26T13:28:48.503867+00:00,442655.265000,898,3231521,98.618194580,50988,1836,3,1754
1787750928.503867,2026-08-26T13:28:48.503867+00:00,442655.265000,899,3231777,98.626007080,50988,1836,3,1752
1787750928.503867,2026-08-26T13:28:48.503867+00:00,442655.265000,900,3232033,98.633819580,50987,1835,3,1751
1787750928.503867,2026-08-26T13:28:48.503867+00:00,442655.265000,901,3232289,98.641632080,50988,1836,3,1753
1787750928.604280,2026-08-26T13:28:48.604280+00:00,442655.375000,902,3232545,98.649444580,50987,1835,3,1751
1787750928.604280,2026-08-26T13:28:48.604280+00:00,442655.375000,903,3232801,98.657257080,50987,1835,3,1753
1787750928.604280,2026-08-26T13:28:48.604280+00:00,442655.375000,904,3233057,98.665069580,50988,1836,3,1755
1787750928.604280,2026-08-26T13:28:48.604280+00:00,442655.375000,905,3233313,98.672882080,50988,1836,3,1752
1787750928.604280,2026-08-26T13:28:48.604280+00:00,442655.375000,906,3233569,98.680694580,50988,1836,3,1751
1787750928.604280,2026-08-26T13:28:48.604280+00:00,442655.375000,907,3233825,98.688507080,50988,1836,3,1751
1787750928.604280,2026-08-26T13:28:48.604280+00:00,442655.375000,908,3234081,98.696319580,50988,1836,3,1750
1787750928.604280,2026-08-26T13:28:48.604280+00:00,442655.375000,909,3234337,98.704132080,50987,1835,3,1750
1787750928.604280,2026-08-26T13:28:48.604280+00:00,442655.375000,910,3234593,98.711944580,50988,1836,3,1752
1787750928.604280,2026-08-26T13:28:48.604280+00:00,442655.375000,911,3234849,98.719757080,50988,1836,3,1751
1787750928.604280,2026-08-26T13:28:48.604280+00:00,442655.375000,912,3235105,98.727569580,50988,1836,3,1751
1787750928.704690,2026-08-26T13:28:48.704690+00:00,442655.468000,913,3235361,98.735382080,50988,1836,3,1751
1787750928.704690,2026-08-26T13:28:48.704690+00:00,442655.468000,914,3235617,98.743194580,50988,1836,3,1750
1787750928.704690,2026-08-26T13:28:48.704690+00:00,442655.468000,915,3235873,98.751007080,50988,1836,3,1750
1787750928.704690,2026-08-26T13:28:48.704690+00:00,442655.468000,916,3236129,98.758819580,50988,1836,3,1750
1787750928.704690,2026-08-26T13:28:48.704690+00:00,442655.468000,917,3236385,98.766632080,50988,1836,3,1750
1787750928.704690,2026-08-26T13:28:48.704690+00:00,442655.468000,918,3236641,98.774444580,50988,1836,3,1749
1787750928.704690,2026-08-26T13:28:48.704690+00:00,442655.468000,919,3236897,98.782257080,50988,1836,3,1750
1787750928.704690,2026-08-26T13:28:48.704690+00:00,442655.468000,920,3237153,98.790069580,50988,1836,3,1750
1787750928.704690,2026-08-26T13:28:48.704690+00:00,442655.468000,921,3237409,98.797882080,50988,1836,3,1750
1787750928.704690,2026-08-26T13:28:48.704690+00:00,442655.468000,922,3237665,98.805694580,50988,1836,3,1750
1787750928.704690,2026-08-26T13:28:48.704690+00:00,442655.468000,923,3237921,98.813507080,50988,1836,3,1750
1787750928.704690,2026-08-26T13:28:48.704690+00:00,442655.468000,924,3238177,98.821319580,50988,1836,3,1750
1787750928.704690,2026-08-26T13:28:48.704690+00:00,442655.468000,925,3238433,98.829132080,50988,1836,3,1750
1787750928.704690,2026-08-26T13:28:48.704690+00:00,442655.468000,926,3238689,98.836944580,50988,1836,3,1750
1787750928.704690,2026-08-26T13:28:48.704690+00:00,442655.468000,927,3238945,98.844757080,50988,1836,3,1750
1787750928.704690,2026-08-26T13:28:48.704690+00:00,442655.468000,928,3239201,98.852569580,50988,1836,3,1750
1787750928.804692,2026-08-26T13:28:48.804692+00:00,442655.578000,929,3239457,98.860382080,50988,1836,3,1750
1787750928.804692,2026-08-26T13:28:48.804692+00:00,442655.578000,930,3239713,98.868194580,50988,1836,3,1750
1787750928.804692,2026-08-26T13:28:48.804692+00:00,442655.578000,931,3239969,98.876007080,50988,1836,3,1750
1787750928.804692,2026-08-26T13:28:48.804692+00:00,442655.578000,932,3240225,98.883819580,50988,1836,3,1750
1787750928.804692,2026-08-26T13:28:48.804692+00:00,442655.578000,933,3240481,98.891632080,50988,1836,3,1750
1787750928.804692,2026-08-26T13:28:48.804692+00:00,442655.578000,934,3240737,98.899444580,50988,1836,3,1750
1787750928.804692,2026-08-26T13:28:48.804692+00:00,442655.578000,935,3240993,98.907257080,50988,1836,3,1749
1787750928.804692,2026-08-26T13:28:48.804692+00:00,442655.578000,936,3241249,98.915069580,50988,1836,3,1750
1787750928.804692,2026-08-26T13:28:48.804692+00:00,442655.578000,937,3241505,98.922882080,50988,1836,3,1750
1787750928.804692,2026-08-26T13:28:48.804692+00:00,442655.578000,938,3241761,98.930694580,50988,1836,3,1750
1787750928.904779,2026-08-26T13:28:48.904779+00:00,442655.671000,939,3242017,98.938507080,50988,1836,3,1750
1787750928.904779,2026-08-26T13:28:48.904779+00:00,442655.671000,940,3242273,98.946319580,50988,1836,3,1749
1787750928.904779,2026-08-26T13:28:48.904779+00:00,442655.671000,941,3242529,98.954132080,50988,1836,3,1750
1787750928.904779,2026-08-26T13:28:48.904779+00:00,442655.671000,942,3242785,98.961944580,50988,1836,3,1750
1787750928.904779,2026-08-26T13:28:48.904779+00:00,442655.671000,943,3243041,98.969757080,50988,1836,3,1750
1787750928.904779,2026-08-26T13:28:48.904779+00:00,442655.671000,944,3243297,98.977569580,50988,1836,3,1749
1787750928.904779,2026-08-26T13:28:48.904779+00:00,442655.671000,945,3243553,98.985382080,50988,1836,3,1750
1787750928.904779,2026-08-26T13:28:48.904779+00:00,442655.671000,946,3243809,98.993194580,50988,1836,3,1750
1787750928.904779,2026-08-26T13:28:48.904779+00:00,442655.671000,947,3244065,99.001007080,50988,1836,3,1749
1787750928.904779,2026-08-26T13:28:48.904779+00:00,442655.671000,948,3244321,99.008819580,50988,1836,3,1750
1787750928.904779,2026-08-26T13:28:48.904779+00:00,442655.671000,949,3244577,99.016632080,50988,1836,3,1750
1787750928.904779,2026-08-26T13:28:48.904779+00:00,442655.671000,950,3244833,99.024444580,50988,1836,3,1750
1787750928.904779,2026-08-26T13:28:48.904779+00:00,442655.671000,951,3245089,99.032257080,50988,1836,3,1750
1787750928.904779,2026-08-26T13:28:48.904779+00:00,442655.671000,952,3245345,99.040069580,50988,1836,3,1750
1787750928.904779,2026-08-26T13:28:48.904779+00:00,442655.671000,953,3245601,99.047882080,50988,1836,3,1750
1787750929.005139,2026-08-26T13:28:49.005139+00:00,442655.781000,954,3245857,99.055694580,50988,1836,3,1749
1787750929.005139,2026-08-26T13:28:49.005139+00:00,442655.781000,955,3246113,99.063507080,50988,1836,3,1750
1787750929.005139,2026-08-26T13:28:49.005139+00:00,442655.781000,956,3246369,99.071319580,50988,1836,3,1750
1787750929.005139,2026-08-26T13:28:49.005139+00:00,442655.781000,957,3246625,99.079132080,50987,1835,3,1750
1787750929.005139,2026-08-26T13:28:49.005139+00:00,442655.781000,958,3246881,99.086944580,50987,1835,3,1752
1787750929.005139,2026-08-26T13:28:49.005139+00:00,442655.781000,959,3247137,99.094757080,50987,1835,3,1754
1787750929.005139,2026-08-26T13:28:49.005139+00:00,442655.781000,960,3247393,99.102569580,50987,1835,3,1755
1787750929.005139,2026-08-26T13:28:49.005139+00:00,442655.781000,961,3247649,99.110382080,50988,1836,3,1755
1787750929.005139,2026-08-26T13:28:49.005139+00:00,442655.781000,962,3247905,99.118194580,50987,1835,3,1752
1787750929.005139,2026-08-26T13:28:49.005139+00:00,442655.781000,963,3248161,99.126007080,50987,1835,3,1754
1787750929.005139,2026-08-26T13:28:49.005139+00:00,442655.781000,964,3248417,99.133819580,50987,1835,3,1754
1787750929.005139,2026-08-26T13:28:49.005139+00:00,442655.781000,965,3248673,99.141632080,50988,1836,3,1755
1787750929.005139,2026-08-26T13:28:49.005139+00:00,442655.781000,966,3248929,99.149444580,50987,1835,3,1753
1787750929.005139,2026-08-26T13:28:49.005139+00:00,442655.781000,967,3249185,99.157257080,50987,1835,3,1754
1787750929.105537,2026-08-26T13:28:49.105537+00:00,442655.875000,968,3249441,99.165069580,50987,1835,3,1755
1787750929.105537,2026-08-26T13:28:49.105537+00:00,442655.875000,969,3249697,99.172882080,50987,1835,3,1755
1787750929.105537,2026-08-26T13:28:49.105537+00:00,442655.875000,970,3249953,99.180694580,50987,1835,3,1755
1787750929.105537,2026-08-26T13:28:49.105537+00:00,442655.875000,971,3250209,99.188507080,50987,1835,3,1756
1787750929.105537,2026-08-26T13:28:49.105537+00:00,442655.875000,972,3250465,99.196319580,50987,1835,3,1755
1787750929.105537,2026-08-26T13:28:49.105537+00:00,442655.875000,973,3250721,99.204132080,50987,1835,3,1755
1787750929.105537,2026-08-26T13:28:49.105537+00:00,442655.875000,974,3250977,99.211944580,50987,1835,3,1755
1787750929.105537,2026-08-26T13:28:49.105537+00:00,442655.875000,975,3251233,99.219757080,50987,1835,3,1755
1787750929.105537,2026-08-26T13:28:49.105537+00:00,442655.875000,976,3251489,99.227569580,50987,1835,3,1755
1787750929.105537,2026-08-26T13:28:49.105537+00:00,442655.875000,977,3251745,99.235382080,50986,1834,3,1756
1787750929.105537,2026-08-26T13:28:49.105537+00:00,442655.875000,978,3252001,99.243194580,50986,1834,3,1751
1787750929.105537,2026-08-26T13:28:49.105537+00:00,442655.875000,979,3252257,99.251007080,50986,1834,3,1750
1787750929.206055,2026-08-26T13:28:49.206055+00:00,442655.968000,980,3252513,99.258819580,50986,1834,3,1748
1787750929.206055,2026-08-26T13:28:49.206055+00:00,442655.968000,981,3252769,99.266632080,50986,1834,3,1748
1787750929.206055,2026-08-26T13:28:49.206055+00:00,442655.968000,982,3253025,99.274444580,50986,1834,3,1747
1787750929.206055,2026-08-26T13:28:49.206055+00:00,442655.968000,983,3253281,99.282257080,50986,1834,3,1747
1787750929.206055,2026-08-26T13:28:49.206055+00:00,442655.968000,984,3253537,99.290069580,50986,1834,3,1747
1787750929.206055,2026-08-26T13:28:49.206055+00:00,442655.968000,985,3253793,99.297882080,50986,1834,3,1747
1787750929.206055,2026-08-26T13:28:49.206055+00:00,442655.968000,986,3254049,99.305694580,50986,1834,3,1747
1787750929.206055,2026-08-26T13:28:49.206055+00:00,442655.968000,987,3254305,99.313507080,50986,1834,3,1747
1787750929.206055,2026-08-26T13:28:49.206055+00:00,442655.968000,988,3254561,99.321319580,50986,1834,3,1746
1787750929.206055,2026-08-26T13:28:49.206055+00:00,442655.968000,989,3254817,99.329132080,50986,1834,3,1747
1787750929.206055,2026-08-26T13:28:49.206055+00:00,442655.968000,990,3255073,99.336944580,50986,1834,3,1747
1787750929.206055,2026-08-26T13:28:49.206055+00:00,442655.968000,991,3255329,99.344757080,50986,1834,3,1747
1787750929.206055,2026-08-26T13:28:49.206055+00:00,442655.968000,992,3255585,99.352569580,50985,1833,3,1746
1787750929.306784,2026-08-26T13:28:49.306784+00:00,442656.078000,993,3255841,99.360382080,50986,1834,3,1746
1787750929.306784,2026-08-26T13:28:49.306784+00:00,442656.078000,994,3256097,99.368194580,50985,1833,3,1746
1787750929.306784,2026-08-26T13:28:49.306784+00:00,442656.078000,995,3256353,99.376007080,50985,1833,3,1746
1787750929.306784,2026-08-26T13:28:49.306784+00:00,442656.078000,996,3256609,99.383819580,50986,1834,3,1745
1787750929.306784,2026-08-26T13:28:49.306784+00:00,442656.078000,997,3256865,99.391632080,50985,1833,3,1745
1787750929.306784,2026-08-26T13:28:49.306784+00:00,442656.078000,998,3257121,99.399444580,50985,1833,3,1745
1787750929.306784,2026-08-26T13:28:49.306784+00:00,442656.078000,999,3257377,99.407257080,50985,1833,3,1745
1787750929.306784,2026-08-26T13:28:49.306784+00:00,442656.078000,1000,3257633,99.415069580,50985,1833,3,1745
1787750929.306784,2026-08-26T13:28:49.306784+00:00,442656.078000,1001,3257889,99.422882080,50985,1833,3,1745
1787750929.306784,2026-08-26T13:28:49.306784+00:00,442656.078000,1002,3258145,99.430694580,50985,1833,3,1745
1787750929.306784,2026-08-26T13:28:49.306784+00:00,442656.078000,1003,3258401,99.438507080,50985,1833,3,1745
1787750929.306784,2026-08-26T13:28:49.306784+00:00,442656.078000,1004,3258657,99.446319580,50985,1833,3,1745
1787750929.406906,2026-08-26T13:28:49.406906+00:00,442656.171000,1005,3258913,99.454132080,50985,1833,3,1745
1787750929.406906,2026-08-26T13:28:49.406906+00:00,442656.171000,1006,3259169,99.461944580,50985,1833,3,1745
1787750929.406906,2026-08-26T13:28:49.406906+00:00,442656.171000,1007,3259425,99.469757080,50985,1833,3,1745
1787750929.406906,2026-08-26T13:28:49.406906+00:00,442656.171000,1008,3259681,99.477569580,50985,1833,3,1745
1787750929.406906,2026-08-26T13:28:49.406906+00:00,442656.171000,1009,3259937,99.485382080,50985,1833,3,1745
1787750929.406906,2026-08-26T13:28:49.406906+00:00,442656.171000,1010,3260193,99.493194580,50985,1833,3,1744
1787750929.406906,2026-08-26T13:28:49.406906+00:00,442656.171000,1011,3260449,99.501007080,50985,1833,3,1745
1787750929.406906,2026-08-26T13:28:49.406906+00:00,442656.171000,1012,3260705,99.508819580,50985,1833,3,1745
1787750929.406906,2026-08-26T13:28:49.406906+00:00,442656.171000,1013,3260961,99.516632080,50984,1832,3,1744
1787750929.406906,2026-08-26T13:28:49.406906+00:00,442656.171000,1014,3261217,99.524444580,50984,1832,3,1741
1787750929.406906,2026-08-26T13:28:49.406906+00:00,442656.171000,1015,3261473,99.532257080,50984,1832,3,1739
1787750929.406906,2026-08-26T13:28:49.406906+00:00,442656.171000,1016,3261729,99.540069580,50984,1832,3,1738
1787750929.406906,2026-08-26T13:28:49.406906+00:00,442656.171000,1017,3261985,99.547882080,50984,1832,3,1737
1787750929.507293,2026-08-26T13:28:49.507293+00:00,442656.281000,1018,3262241,99.555694580,50984,1832,3,1736
1787750929.507293,2026-08-26T13:28:49.507293+00:00,442656.281000,1019,3262497,99.563507080,50984,1832,3,1736
1787750929.507293,2026-08-26T13:28:49.507293+00:00,442656.281000,1020,3262753,99.571319580,50984,1832,3,1736
1787750929.507293,2026-08-26T13:28:49.507293+00:00,442656.281000,1021,3263009,99.579132080,50984,1832,3,1736
1787750929.507293,2026-08-26T13:28:49.507293+00:00,442656.281000,1022,3263265,99.586944580,50984,1832,3,1736
1787750929.507293,2026-08-26T13:28:49.507293+00:00,442656.281000,1023,3263521,99.594757080,50984,1832,3,1736
1787750929.507293,2026-08-26T13:28:49.507293+00:00,442656.281000,1024,3263777,99.602569580,50984,1832,3,1736
1787750929.507293,2026-08-26T13:28:49.507293+00:00,442656.281000,1025,3264033,99.610382080,50984,1832,3,1736
1787750929.507293,2026-08-26T13:28:49.507293+00:00,442656.281000,1026,3264289,99.618194580,50983,1831,3,1735
1787750929.507293,2026-08-26T13:28:49.507293+00:00,442656.281000,1027,3264545,99.626007080,50984,1832,3,1739
1787750929.507293,2026-08-26T13:28:49.507293+00:00,442656.281000,1028,3264801,99.633819580,50983,1831,3,1737
1787750929.507293,2026-08-26T13:28:49.507293+00:00,442656.281000,1029,3265057,99.641632080,50983,1831,3,1740
1787750929.507293,2026-08-26T13:28:49.507293+00:00,442656.281000,1030,3265313,99.649444580,50983,1831,3,1741
1787750929.507293,2026-08-26T13:28:49.507293+00:00,442656.281000,1031,3265569,99.657257080,50983,1831,3,1742
1787750929.607567,2026-08-26T13:28:49.607567+00:00,442656.375000,1032,3265825,99.665069580,50983,1831,3,1742
1787750929.607567,2026-08-26T13:28:49.607567+00:00,442656.375000,1033,3266081,99.672882080,50983,1831,3,1742
1787750929.607567,2026-08-26T13:28:49.607567+00:00,442656.375000,1034,3266337,99.680694580,50983,1831,3,1742
1787750929.607567,2026-08-26T13:28:49.607567+00:00,442656.375000,1035,3266593,99.688507080,50983,1831,3,1742
1787750929.607567,2026-08-26T13:28:49.607567+00:00,442656.375000,1036,3266849,99.696319580,50982,1830,3,1742
1787750929.607567,2026-08-26T13:28:49.607567+00:00,442656.375000,1037,3267105,99.704132080,50982,1830,3,1738
1787750929.607567,2026-08-26T13:28:49.607567+00:00,442656.375000,1038,3267361,99.711944580,50982,1830,3,1736
1787750929.607567,2026-08-26T13:28:49.607567+00:00,442656.375000,1039,3267617,99.719757080,50982,1830,3,1734
1787750929.607567,2026-08-26T13:28:49.607567+00:00,442656.375000,1040,3267873,99.727569580,50983,1831,3,1734
1787750929.607567,2026-08-26T13:28:49.607567+00:00,442656.375000,1041,3268129,99.735382080,50982,1830,3,1737
1787750929.607567,2026-08-26T13:28:49.607567+00:00,442656.375000,1042,3268385,99.743194580,50982,1830,3,1735
1787750929.607567,2026-08-26T13:28:49.607567+00:00,442656.375000,1043,3268641,99.751007080,50982,1830,3,1734
1787750929.707810,2026-08-26T13:28:49.707810+00:00,442656.484000,1044,3268897,99.758819580,50982,1830,3,1734
1787750929.707810,2026-08-26T13:28:49.707810+00:00,442656.484000,1045,3269153,99.766632080,50982,1830,3,1734
1787750929.707810,2026-08-26T13:28:49.707810+00:00,442656.484000,1046,3269409,99.774444580,50982,1830,3,1733
1787750929.707810,2026-08-26T13:28:49.707810+00:00,442656.484000,1047,3269665,99.782257080,50982,1830,3,1733
1787750929.707810,2026-08-26T13:28:49.707810+00:00,442656.484000,1048,3269921,99.790069580,50982,1830,3,1733
1787750929.707810,2026-08-26T13:28:49.707810+00:00,442656.484000,1049,3270177,99.797882080,50981,1829,3,1733
1787750929.707810,2026-08-26T13:28:49.707810+00:00,442656.484000,1050,3270433,99.805694580,50981,1829,3,1732
1787750929.707810,2026-08-26T13:28:49.707810+00:00,442656.484000,1051,3270689,99.813507080,50982,1830,3,1732
1787750929.707810,2026-08-26T13:28:49.707810+00:00,442656.484000,1052,3270945,99.821319580,50981,1829,3,1732
1787750929.707810,2026-08-26T13:28:49.707810+00:00,442656.484000,1053,3271201,99.829132080,50981,1829,3,1732
1787750929.707810,2026-08-26T13:28:49.707810+00:00,442656.484000,1054,3271457,99.836944580,50981,1829,3,1731
1787750929.707810,2026-08-26T13:28:49.707810+00:00,442656.484000,1055,3271713,99.844757080,50981,1829,3,1731
1787750929.707810,2026-08-26T13:28:49.707810+00:00,442656.484000,1056,3271969,99.852569580,50981,1829,3,1731
1787750929.807813,2026-08-26T13:28:49.807813+00:00,442656.578000,1057,3272225,99.860382080,50981,1829,3,1731
1787750929.807813,2026-08-26T13:28:49.807813+00:00,442656.578000,1058,3272481,99.868194580,50981,1829,3,1731
1787750929.807813,2026-08-26T13:28:49.807813+00:00,442656.578000,1059,3272737,99.876007080,50980,1828,3,1731
1787750929.807813,2026-08-26T13:28:49.807813+00:00,442656.578000,1060,3272993,99.883819580,50980,1828,3,1728
1787750929.807813,2026-08-26T13:28:49.807813+00:00,442656.578000,1061,3273249,99.891632080,50980,1828,3,1725
1787750929.807813,2026-08-26T13:28:49.807813+00:00,442656.578000,1062,3273505,99.899444580,50980,1828,3,1723
1787750929.807813,2026-08-26T13:28:49.807813+00:00,442656.578000,1063,3273761,99.907257080,50979,1827,3,1723
1787750929.807813,2026-08-26T13:28:49.807813+00:00,442656.578000,1064,3274017,99.915069580,50980,1828,3,1726
1787750929.807813,2026-08-26T13:28:49.807813+00:00,442656.578000,1065,3274273,99.922882080,50980,1828,3,1724
1787750929.807813,2026-08-26T13:28:49.807813+00:00,442656.578000,1066,3274529,99.930694580,50979,1827,3,1723
1787750929.807813,2026-08-26T13:28:49.807813+00:00,442656.578000,1067,3274785,99.938507080,50979,1827,3,1726
1787750929.807813,2026-08-26T13:28:49.807813+00:00,442656.578000,1068,3275041,99.946319580,50979,1827,3,1727
1787750929.908828,2026-08-26T13:28:49.908828+00:00,442656.671000,1069,3275297,99.954132080,50979,1827,3,1728
1787750929.908828,2026-08-26T13:28:49.908828+00:00,442656.671000,1070,3275553,99.961944580,50979,1827,3,1728
1787750929.908828,2026-08-26T13:28:49.908828+00:00,442656.671000,1071,3275809,99.969757080,50979,1827,3,1728
1787750929.908828,2026-08-26T13:28:49.908828+00:00,442656.671000,1072,3276065,99.977569580,50979,1827,3,1728
1787750929.908828,2026-08-26T13:28:49.908828+00:00,442656.671000,1073,3276321,99.985382080,50979,1827,3,1728
1787750929.908828,2026-08-26T13:28:49.908828+00:00,442656.671000,1074,3276577,99.993194580,50978,1826,3,1728
1787750929.908828,2026-08-26T13:28:49.908828+00:00,442656.671000,1075,3276833,100.001007080,50978,1826,3,1724
1787750929.908828,2026-08-26T13:28:49.908828+00:00,442656.671000,1076,3277089,100.008819580,50978,1826,3,1722
1787750929.908828,2026-08-26T13:28:49.908828+00:00,442656.671000,1077,3277345,100.016632080,50978,1826,3,1721
1787750929.908828,2026-08-26T13:28:49.908828+00:00,442656.671000,1078,3277601,100.024444580,50978,1826,3,1720
1787750929.908828,2026-08-26T13:28:49.908828+00:00,442656.671000,1079,3277857,100.032257080,50978,1826,3,1720
1787750929.908828,2026-08-26T13:28:49.908828+00:00,442656.671000,1080,3278113,100.040069580,50977,1825,3,1720
1787750929.908828,2026-08-26T13:28:49.908828+00:00,442656.671000,1081,3278369,100.047882080,50978,1826,3,1719
1787750930.009487,2026-08-26T13:28:50.009487+00:00,442656.781000,1082,3278625,100.055694580,50978,1826,3,1719
1787750930.009487,2026-08-26T13:28:50.009487+00:00,442656.781000,1083,3278881,100.063507080,50977,1825,3,1719
1787750930.009487,2026-08-26T13:28:50.009487+00:00,442656.781000,1084,3279137,100.071319580,50978,1826,3,1718
1787750930.009487,2026-08-26T13:28:50.009487+00:00,442656.781000,1085,3279393,100.079132080,50978,1826,3,1719
1787750930.009487,2026-08-26T13:28:50.009487+00:00,442656.781000,1086,3279649,100.086944580,50977,1825,3,1719
1787750930.009487,2026-08-26T13:28:50.009487+00:00,442656.781000,1087,3279905,100.094757080,50977,1825,3,1719
1787750930.009487,2026-08-26T13:28:50.009487+00:00,442656.781000,1088,3280161,100.102569580,50977,1825,3,1718
1787750930.009487,2026-08-26T13:28:50.009487+00:00,442656.781000,1089,3280417,100.110382080,50976,1824,3,1718
1787750930.009487,2026-08-26T13:28:50.009487+00:00,442656.781000,1090,3280673,100.118194580,50977,1825,3,1714
1787750930.009487,2026-08-26T13:28:50.009487+00:00,442656.781000,1091,3280929,100.126007080,50976,1824,3,1716
1787750930.009487,2026-08-26T13:28:50.009487+00:00,442656.781000,1092,3281185,100.133819580,50976,1824,3,1713
1787750930.009487,2026-08-26T13:28:50.009487+00:00,442656.781000,1093,3281441,100.141632080,50976,1824,3,1711
1787750930.110236,2026-08-26T13:28:50.110236+00:00,442656.875000,1094,3281697,100.149444580,50976,1824,3,1710
1787750930.110236,2026-08-26T13:28:50.110236+00:00,442656.875000,1095,3281953,100.157257080,50976,1824,3,1710
1787750930.110236,2026-08-26T13:28:50.110236+00:00,442656.875000,1096,3282209,100.165069580,50976,1824,3,1709
1787750930.110236,2026-08-26T13:28:50.110236+00:00,442656.875000,1097,3282465,100.172882080,50976,1824,3,1709
1787750930.110236,2026-08-26T13:28:50.110236+00:00,442656.875000,1098,3282721,100.180694580,50976,1824,3,1709
1787750930.110236,2026-08-26T13:28:50.110236+00:00,442656.875000,1099,3282977,100.188507080,50976,1824,3,1709
1787750930.110236,2026-08-26T13:28:50.110236+00:00,442656.875000,1100,3283233,100.196319580,50976,1824,3,1709
1787750930.110236,2026-08-26T13:28:50.110236+00:00,442656.875000,1101,3283489,100.204132080,50975,1823,3,1709
1787750930.110236,2026-08-26T13:28:50.110236+00:00,442656.875000,1102,3283745,100.211944580,50976,1824,3,1712
1787750930.110236,2026-08-26T13:28:50.110236+00:00,442656.875000,1103,3284001,100.219757080,50976,1824,3,1711
1787750930.110236,2026-08-26T13:28:50.110236+00:00,442656.875000,1104,3284257,100.227569580,50976,1824,3,1710
1787750930.110236,2026-08-26T13:28:50.110236+00:00,442656.875000,1105,3284513,100.235382080,50975,1823,3,1709
1787750930.110236,2026-08-26T13:28:50.110236+00:00,442656.875000,1106,3284769,100.243194580,50975,1823,3,1712
1787750930.110236,2026-08-26T13:28:50.110236+00:00,442656.875000,1107,3285025,100.251007080,50975,1823,3,1713
1787750930.210254,2026-08-26T13:28:50.210254+00:00,442656.984000,1108,3285281,100.258819580,50975,1823,3,1715
1787750930.210254,2026-08-26T13:28:50.210254+00:00,442656.984000,1109,3285537,100.266632080,50975,1823,3,1714
